Time_s,Voltage_mV
0.001,-0.12786
0.002,-0.130455
0.003,-0.132726
0.004,-0.134673
0.005,-0.132726
0.006,-0.123642
0.007,-0.111314
0.008,-0.103203
0.009,-0.09931
0.01,-0.096714
0.011,-0.096065
0.012,-0.100607
0.013,-0.104501
0.014,-0.102878
0.015,-0.101905
0.016,-0.101905
0.017,-0.095741
0.018,-0.092172
0.019,-0.095092
0.02,-0.094119
0.021,-0.092497
0.022,-0.09347
0.023,-0.096065
0.024,-0.088928
0.025,-0.081791
0.026,-0.084386
0.027,-0.089577
0.028,-0.083088
0.029,-0.074978
0.03,-0.076275
0.031,-0.082115
0.032,-0.098661
0.033,-0.104825
0.034,-0.102878
0.035,-0.102878
0.036,-0.114558
0.037,-0.129806
0.038,-0.13889
0.039,-0.133375
0.04,-0.125913
0.041,-0.124291
0.042,-0.130779
0.043,-0.138566
0.044,-0.139539
0.045,-0.138566
0.046,-0.135646
0.047,-0.13305
0.048,-0.132402
0.049,-0.130455
0.05,-0.129157
0.051,-0.131104
0.052,-0.137592
0.053,-0.14181
0.054,-0.136944
0.055,-0.13305
0.056,-0.141486
0.057,-0.150245
0.058,-0.153489
0.059,-0.148623
0.06,-0.136944
0.061,-0.12202
0.062,-0.106123
0.063,-0.094768
0.064,-0.089577
0.065,-0.088279
0.066,-0.088279
0.067,-0.094119
0.068,-0.092821
0.069,-0.091199
0.07,-0.093146
0.071,-0.091848
0.072,-0.090875
0.073,-0.084062
0.074,-0.081791
0.075,-0.075302
0.076,-0.064596
0.077,-0.04513
0.078,-0.015931
0.079,0.016187
0.08,0.06031
0.081,0.087562
0.082,0.108325
0.083,0.124871
0.084,0.127791
0.085,0.123249
0.086,0.120005
0.087,0.117085
0.088,0.110921
0.089,0.095672
0.09,0.086588
0.091,0.0801
0.092,0.068745
0.093,0.059985
0.094,0.050252
0.095,0.032733
0.096,0.002237
0.097,-0.027611
0.098,-0.051943
0.099,-0.071409
0.1,-0.086657
0.101,-0.10223
0.102,-0.112287
0.103,-0.111638
0.104,-0.111638
0.105,-0.123966
0.106,-0.130455
0.107,-0.134024
0.108,-0.13597
0.109,-0.14473
0.11,-0.166142
0.111,-0.187879
0.112,-0.200207
0.113,-0.206696
0.114,-0.210265
0.115,-0.209616
0.116,-0.202803
0.117,-0.194692
0.118,-0.197287
0.119,-0.196963
0.12,-0.19307
0.121,-0.192745
0.122,-0.199883
0.123,-0.211887
0.124,-0.224215
0.125,-0.23557
0.126,-0.235246
0.127,-0.229082
0.128,-0.225837
0.129,-0.230055
0.13,-0.234272
0.131,-0.238814
0.132,-0.238166
0.133,-0.242059
0.134,-0.246601
0.135,-0.249196
0.136,-0.239139
0.137,-0.226162
0.138,-0.214807
0.139,-0.216104
0.14,-0.219673
0.141,-0.223242
0.142,-0.22454
0.143,-0.22454
0.144,-0.229406
0.145,-0.22454
0.146,-0.216753
0.147,-0.210913
0.148,-0.209616
0.149,-0.201181
0.15,-0.190799
0.151,-0.190474
0.152,-0.181715
0.153,-0.184635
0.154,-0.188528
0.155,-0.186906
0.156,-0.186906
0.157,-0.192097
0.158,-0.194368
0.159,-0.187879
0.16,-0.175875
0.161,-0.167764
0.162,-0.169387
0.163,-0.19015
0.164,-0.234597
0.165,-0.298509
0.166,-0.373128
0.167,-0.487003
0.168,-0.657004
0.169,-0.856528
0.17,-1.057349
0.171,-1.242274
0.172,-1.376587
0.173,-1.442122
0.174,-1.440824
0.175,-1.353553
0.176,-1.197178
0.177,-0.966834
0.178,-0.65895
0.179,-0.267364
0.18,0.19657
0.181,0.673482
0.182,1.15299
0.183,1.617899
0.184,2.011758
0.185,2.36993
0.186,2.664513
0.187,2.855604
0.188,2.974994
0.189,2.998678
0.19,2.877016
0.191,2.625257
0.192,2.289471
0.193,1.917673
0.194,1.539062
0.195,1.176998
0.196,0.829533
0.197,0.538195
0.198,0.316609
0.199,0.160234
0.2,0.081073
0.201,0.052848
0.202,0.044737
0.203,0.049279
0.204,0.049603
0.205,0.039546
0.206,0.02008
0.207,-0.001656
0.208,-0.024042
0.209,-0.05097
0.21,-0.072707
0.211,-0.100283
0.212,-0.129806
0.213,-0.166791
0.214,-0.196639
0.215,-0.211562
0.216,-0.226486
0.217,-0.23849
0.218,-0.25828
0.219,-0.273853
0.22,-0.286506
0.221,-0.30662
0.222,-0.332575
0.223,-0.360151
0.224,-0.37183
0.225,-0.377021
0.226,-0.372155
0.227,-0.363071
0.228,-0.36372
0.229,-0.379617
0.23,-0.399731
0.231,-0.413357
0.232,-0.430877
0.233,-0.445152
0.234,-0.456182
0.235,-0.467862
0.236,-0.473701
0.237,-0.470133
0.238,-0.467537
0.239,-0.474675
0.24,-0.484083
0.241,-0.48603
0.242,-0.477594
0.243,-0.477594
0.244,-0.48019
0.245,-0.477919
0.246,-0.479541
0.247,-0.487327
0.248,-0.492194
0.249,-0.492194
0.25,-0.488625
0.251,-0.481488
0.252,-0.478243
0.253,-0.480514
0.254,-0.48603
0.255,-0.486678
0.256,-0.488949
0.257,-0.49706
0.258,-0.502575
0.259,-0.497385
0.26,-0.489274
0.261,-0.48311
0.262,-0.482461
0.263,-0.485381
0.264,-0.492843
0.265,-0.503549
0.266,-0.513282
0.267,-0.517824
0.268,-0.517824
0.269,-0.523339
0.27,-0.526908
0.271,-0.523339
0.272,-0.525286
0.273,-0.53145
0.274,-0.529179
0.275,-0.531774
0.276,-0.543129
0.277,-0.549618
0.278,-0.558377
0.279,-0.564541
0.28,-0.567786
0.281,-0.565839
0.282,-0.569408
0.283,-0.574274
0.284,-0.577519
0.285,-0.588225
0.286,-0.602175
0.287,-0.615477
0.288,-0.620668
0.289,-0.621317
0.29,-0.632672
0.291,-0.637538
0.292,-0.646298
0.293,-0.651489
0.294,-0.644351
0.295,-0.638511
0.296,-0.638187
0.297,-0.651489
0.298,-0.665439
0.299,-0.679389
0.3,-0.701126
0.301,-0.722214
0.302,-0.715401
0.303,-0.700153
0.304,-0.691718
0.305,-0.701451
0.306,-0.715725
0.307,-0.725458
0.308,-0.734542
0.309,-0.756604
0.31,-0.77542
0.311,-0.784504
0.312,-0.797482
0.313,-0.813054
0.314,-0.825383
0.315,-0.856528
0.316,-0.888646
0.317,-0.913303
0.318,-0.934715
0.319,-0.950288
0.32,-0.960345
0.321,-0.973647
0.322,-0.983379
0.323,-0.981757
0.324,-0.965536
0.325,-0.925956
0.326,-0.882806
0.327,-0.831222
0.328,-0.770878
0.329,-0.708912
0.33,-0.646298
0.331,-0.592442
0.332,-0.541831
0.333,-0.49122
0.334,-0.4458
0.335,-0.412709
0.336,-0.386105
0.337,-0.362746
0.338,-0.340361
0.339,-0.325437
0.34,-0.313109
0.341,-0.304998
0.342,-0.293967
0.343,-0.288128
0.344,-0.296238
0.345,-0.308567
0.346,-0.311487
0.347,-0.307593
0.348,-0.304025
0.349,-0.308242
0.35,-0.306296
0.351,-0.30954
0.352,-0.316677
0.353,-0.322842
0.354,-0.325113
0.355,-0.327384
0.356,-0.324464
0.357,-0.315055
0.358,-0.298509
0.359,-0.288452
0.36,-0.287154
0.361,-0.285208
0.362,-0.280017
0.363,-0.271582
0.364,-0.256982
0.365,-0.249845
0.366,-0.261849
0.367,-0.274826
0.368,-0.27288
0.369,-0.2612
0.37,-0.245952
0.371,-0.232001
0.372,-0.223242
0.373,-0.226486
0.374,-0.227784
0.375,-0.22973
0.376,-0.232001
0.377,-0.225837
0.378,-0.221944
0.379,-0.230379
0.38,-0.230704
0.381,-0.222593
0.382,-0.218375
0.383,-0.227459
0.384,-0.231353
0.385,-0.222593
0.386,-0.215131
0.387,-0.219998
0.388,-0.227784
0.389,-0.231028
0.39,-0.232001
0.391,-0.21578
0.392,-0.197936
0.393,-0.212211
0.394,-0.218051
0.395,-0.216429
0.396,-0.21578
0.397,-0.216104
0.398,-0.209616
0.399,-0.203127
0.4,-0.214807
0.401,-0.224864
0.402,-0.23557
0.403,-0.24725
0.404,-0.250818
0.405,-0.255036
0.406,-0.253738
0.407,-0.248547
0.408,-0.248872
0.409,-0.253414
0.41,-0.258605
0.411,-0.259578
0.412,-0.260227
0.413,-0.245952
0.414,-0.23265
0.415,-0.227135
0.416,-0.219673
0.417,-0.221295
0.418,-0.228433
0.419,-0.240761
0.42,-0.244654
0.421,-0.249521
0.422,-0.26412
0.423,-0.271906
0.424,-0.269635
0.425,-0.259578
0.426,-0.251143
0.427,-0.249196
0.428,-0.249196
0.429,-0.243032
0.43,-0.239463
0.431,-0.239139
0.432,-0.240437
0.433,-0.244979
0.434,-0.246925
0.435,-0.242383
0.436,-0.229082
0.437,-0.222917
0.438,-0.219024
0.439,-0.223891
0.44,-0.231353
0.441,-0.232001
0.442,-0.238814
0.443,-0.250494
0.444,-0.259902
0.445,-0.270609
0.446,-0.268338
0.447,-0.259253
0.448,-0.253738
0.449,-0.248547
0.45,-0.242383
0.451,-0.23849
0.452,-0.239139
0.453,-0.24141
0.454,-0.246276
0.455,-0.247574
0.456,-0.240761
0.457,-0.223891
0.458,-0.211238
0.459,-0.203776
0.46,-0.195665
0.461,-0.186906
0.462,-0.179768
0.463,-0.180417
0.464,-0.183013
0.465,-0.179768
0.466,-0.164196
0.467,-0.14181
0.468,-0.111638
0.469,-0.075951
0.47,-0.038317
0.471,-0.003279
0.472,0.021378
0.473,0.029164
0.474,0.033382
0.475,0.042466
0.476,0.049928
0.477,0.04279
0.478,0.039222
0.479,0.038897
0.48,0.049603
0.481,0.054145
0.482,0.033382
0.483,0.00905
0.484,-0.009118
0.485,-0.035397
0.486,-0.078546
0.487,-0.111638
0.488,-0.129157
0.489,-0.14181
0.49,-0.15868
0.491,-0.17036
0.492,-0.181715
0.493,-0.186906
0.494,-0.187879
0.495,-0.194692
0.496,-0.209291
0.497,-0.214158
0.498,-0.206371
0.499,-0.201829
0.5,-0.200207
0.501,-0.189501
0.502,-0.174577
0.503,-0.170035
0.504,-0.175226
0.505,-0.178795
0.506,-0.185284
0.507,-0.19599
0.508,-0.206371
0.509,-0.221944
0.51,-0.231028
0.511,-0.232975
0.512,-0.240437
0.513,-0.246925
0.514,-0.24433
0.515,-0.237192
0.516,-0.236868
0.517,-0.238814
0.518,-0.245303
0.519,-0.24725
0.52,-0.251143
0.521,-0.259902
0.522,-0.269635
0.523,-0.27288
0.524,-0.269635
0.525,-0.265742
0.526,-0.257956
0.527,-0.257307
0.528,-0.249845
0.529,-0.241734
0.53,-0.248872
0.531,-0.259253
0.532,-0.268013
0.533,-0.269635
0.534,-0.263471
0.535,-0.261524
0.536,-0.256982
0.537,-0.246276
0.538,-0.249521
0.539,-0.258929
0.54,-0.26412
0.541,-0.254063
0.542,-0.247898
0.543,-0.248872
0.544,-0.24433
0.545,-0.237517
0.546,-0.233624
0.547,-0.239139
0.548,-0.24433
0.549,-0.245303
0.55,-0.249845
0.551,-0.286181
0.552,-0.354311
0.553,-0.441258
0.554,-0.56227
0.555,-0.731298
0.556,-0.925307
0.557,-1.12483
0.558,-1.306186
0.559,-1.448286
0.56,-1.521282
0.561,-1.522904
0.562,-1.434335
0.563,-1.262388
0.564,-1.02004
0.565,-0.713779
0.566,-0.326086
0.567,0.142715
0.568,0.629035
0.569,1.096215
0.57,1.558853
0.571,1.971853
0.572,2.330674
0.573,2.622013
0.574,2.814076
0.575,2.93736
0.576,2.967857
0.577,2.874421
0.578,2.640181
0.579,2.282658
0.58,1.880363
0.581,1.476772
0.582,1.100432
0.583,0.736746
0.584,0.430808
0.585,0.208898
0.586,0.053172
0.587,-0.02242
0.588,-0.049996
0.589,-0.047725
0.59,-0.04221
0.591,-0.04221
0.592,-0.044481
0.593,-0.052267
0.594,-0.06784
0.595,-0.093146
0.596,-0.117802
0.597,-0.142783
0.598,-0.172955
0.599,-0.199234
0.6,-0.22454
0.601,-0.24433
0.602,-0.259578
0.603,-0.278719
0.604,-0.302078
0.605,-0.322517
0.606,-0.334197
0.607,-0.348472
0.608,-0.365991
0.609,-0.378319
0.61,-0.382212
0.611,-0.38935
0.612,-0.389025
0.613,-0.387728
0.614,-0.378968
0.615,-0.378319
0.616,-0.402327
0.617,-0.418224
0.618,-0.430552
0.619,-0.444827
0.62,-0.454236
0.621,-0.452289
0.622,-0.442881
0.623,-0.436392
0.624,-0.436067
0.625,-0.448396
0.626,-0.452938
0.627,-0.458453
0.628,-0.462022
0.629,-0.452613
0.63,-0.450342
0.631,-0.462346
0.632,-0.467213
0.633,-0.469159
0.634,-0.458453
0.635,-0.443854
0.636,-0.436067
0.637,-0.421468
0.638,-0.415304
0.639,-0.435419
0.64,-0.456507
0.641,-0.449369
0.642,-0.449045
0.643,-0.464293
0.644,-0.458129
0.645,-0.452289
0.646,-0.46332
0.647,-0.47435
0.648,-0.47435
0.649,-0.479541
0.65,-0.488301
0.651,-0.491545
0.652,-0.493816
0.653,-0.499331
0.654,-0.506469
0.655,-0.510037
0.656,-0.519446
0.657,-0.53145
0.658,-0.535343
0.659,-0.53145
0.66,-0.524637
0.661,-0.532099
0.662,-0.536965
0.663,-0.541183
0.664,-0.542156
0.665,-0.546698
0.666,-0.559999
0.667,-0.569732
0.668,-0.579141
0.669,-0.593091
0.67,-0.602175
0.671,-0.617099
0.672,-0.637214
0.673,-0.650515
0.674,-0.650191
0.675,-0.656031
0.676,-0.658626
0.677,-0.654084
0.678,-0.653435
0.679,-0.669332
0.68,-0.688473
0.681,-0.698531
0.682,-0.695935
0.683,-0.69918
0.684,-0.720916
0.685,-0.74168
0.686,-0.762768
0.687,-0.769581
0.688,-0.765039
0.689,-0.764065
0.69,-0.776718
0.691,-0.790344
0.692,-0.800077
0.693,-0.797806
0.694,-0.799753
0.695,-0.802672
0.696,-0.799428
0.697,-0.80981
0.698,-0.833818
0.699,-0.862367
0.7,-0.887024
0.701,-0.920765
0.702,-0.946719
0.703,-0.965536
0.704,-0.982406
0.705,-0.996357
0.706,-1.022635
0.707,-1.051834
0.708,-1.066758
0.709,-1.06546
0.71,-1.043399
0.711,-0.99733
0.712,-0.947368
0.713,-0.897081
0.714,-0.845173
0.715,-0.783207
0.716,-0.716699
0.717,-0.649218
0.718,-0.588225
0.719,-0.535343
0.72,-0.485705
0.721,-0.431525
0.722,-0.381239
0.723,-0.342632
0.724,-0.322517
0.725,-0.304349
0.726,-0.287479
0.727,-0.278719
0.728,-0.275151
0.729,-0.265418
0.73,-0.257307
0.731,-0.245627
0.732,-0.234921
0.733,-0.229082
0.734,-0.221295
0.735,-0.216104
0.736,-0.218375
0.737,-0.221944
0.738,-0.215456
0.739,-0.217402
0.74,-0.221944
0.741,-0.230704
0.742,-0.240437
0.743,-0.237192
0.744,-0.225837
0.745,-0.210589
0.746,-0.200532
0.747,-0.204749
0.748,-0.199883
0.749,-0.191123
0.75,-0.204425
0.751,-0.229082
0.752,-0.231028
0.753,-0.228433
0.754,-0.232326
0.755,-0.219024
0.756,-0.207345
0.757,-0.227459
0.758,-0.242059
0.759,-0.242708
0.76,-0.243681
0.761,-0.24141
0.762,-0.245303
0.763,-0.251467
0.764,-0.254063
0.765,-0.251467
0.766,-0.24433
0.767,-0.245627
0.768,-0.253089
0.769,-0.253089
0.77,-0.25244
0.771,-0.260876
0.772,-0.265418
0.773,-0.262822
0.774,-0.257956
0.775,-0.259902
0.776,-0.257956
0.777,-0.25244
0.778,-0.249521
0.779,-0.254387
0.78,-0.260227
0.781,-0.255036
0.782,-0.246276
0.783,-0.247898
0.784,-0.257631
0.785,-0.267364
0.786,-0.26996
0.787,-0.268662
0.788,-0.264769
0.789,-0.262822
0.79,-0.250818
0.791,-0.243356
0.792,-0.253738
0.793,-0.274177
0.794,-0.279044
0.795,-0.279044
0.796,-0.271906
0.797,-0.264769
0.798,-0.258605
0.799,-0.262822
0.8,-0.258605
0.801,-0.254387
0.802,-0.253414
0.803,-0.254711
0.804,-0.256009
0.805,-0.259253
0.806,-0.260227
0.807,-0.255685
0.808,-0.25244
0.809,-0.245627
0.81,-0.235246
0.811,-0.234272
0.812,-0.243032
0.813,-0.246601
0.814,-0.232975
0.815,-0.229082
0.816,-0.221295
0.817,-0.219673
0.818,-0.226162
0.819,-0.234272
0.82,-0.234921
0.821,-0.233299
0.822,-0.236219
0.823,-0.240761
0.824,-0.243356
0.825,-0.245627
0.826,-0.24725
0.827,-0.245303
0.828,-0.24433
0.829,-0.248223
0.83,-0.250169
0.831,-0.243032
0.832,-0.239139
0.833,-0.231677
0.834,-0.221295
0.835,-0.21286
0.836,-0.202478
0.837,-0.200856
0.838,-0.196314
0.839,-0.211238
0.84,-0.220971
0.841,-0.224215
0.842,-0.216104
0.843,-0.198261
0.844,-0.183013
0.845,-0.190799
0.846,-0.185932
0.847,-0.168089
0.848,-0.140512
0.849,-0.104501
0.85,-0.082115
0.851,-0.066867
0.852,-0.057458
0.853,-0.04513
0.854,-0.034424
0.855,-0.029557
0.856,-0.025989
0.857,-0.024042
0.858,-0.018851
0.859,-0.015607
0.86,-0.023393
0.861,-0.05097
0.862,-0.077249
0.863,-0.103203
0.864,-0.130455
0.865,-0.158031
0.866,-0.188528
0.867,-0.208642
0.868,-0.227784
0.869,-0.233948
0.87,-0.223242
0.871,-0.22973
0.872,-0.244979
0.873,-0.256982
0.874,-0.263795
0.875,-0.258929
0.876,-0.246601
0.877,-0.239139
0.878,-0.237192
0.879,-0.235246
0.88,-0.233299
0.881,-0.236219
0.882,-0.232001
0.883,-0.230379
0.884,-0.228757
0.885,-0.231677
0.886,-0.221295
0.887,-0.206371
0.888,-0.197612
0.889,-0.192745
0.89,-0.186257
0.891,-0.188203
0.892,-0.197287
0.893,-0.201181
0.894,-0.203452
0.895,-0.199883
0.896,-0.191448
0.897,-0.179119
0.898,-0.161276
0.899,-0.163547
0.9,-0.180417
0.901,-0.193394
0.902,-0.194043
0.903,-0.199883
0.904,-0.197936
0.905,-0.197287
0.906,-0.208318
0.907,-0.208642
0.908,-0.199558
0.909,-0.195016
0.91,-0.191123
0.911,-0.189826
0.912,-0.195665
0.913,-0.195665
0.914,-0.183661
0.915,-0.18139
0.916,-0.18431
0.917,-0.193719
0.918,-0.195341
0.919,-0.183337
0.92,-0.16744
0.921,-0.164845
0.922,-0.164196
0.923,-0.163547
0.924,-0.167116
0.925,-0.168738
0.926,-0.168413
0.927,-0.17036
0.928,-0.176848
0.929,-0.210913
0.93,-0.271582
0.931,-0.34912
0.932,-0.459426
0.933,-0.621641
0.934,-0.808188
0.935,-0.999276
0.936,-1.196529
0.937,-1.3409
0.938,-1.427522
0.939,-1.443419
0.94,-1.365232
0.941,-1.191987
0.942,-0.947368
0.943,-0.634294
0.944,-0.236543
0.945,0.233555
0.946,0.696517
0.947,1.151692
0.948,1.611735
0.949,2.019544
0.95,2.356953
0.951,2.643425
0.952,2.843924
0.953,2.983754
0.954,3.027877
0.955,2.936063
0.956,2.695334
0.957,2.345598
0.958,1.953685
0.959,1.563719
0.96,1.191597
0.961,0.824342
0.962,0.524893
0.963,0.310121
0.964,0.160558
0.965,0.090806
0.966,0.076856
0.967,0.084966
0.968,0.095348
0.969,0.088211
0.97,0.083669
0.971,0.078802
0.972,0.064852
0.973,0.038573
0.974,0.009699
0.975,-0.017553
0.976,-0.046103
0.977,-0.074004
0.978,-0.100607
0.979,-0.127535
0.98,-0.157707
0.981,-0.184635
0.982,-0.207669
0.983,-0.223891
0.984,-0.234921
0.985,-0.226811
0.986,-0.220646
0.987,-0.222269
0.988,-0.239463
0.989,-0.251143
0.99,-0.256658
0.991,-0.276773
0.992,-0.302727
0.993,-0.316677
0.994,-0.325113
0.995,-0.333548
0.996,-0.341983
0.997,-0.346201
0.998,-0.351067
0.999,-0.362422
1,-0.367613
1.001,-0.369235
1.002,-0.359502
1.003,-0.362422
1.004,-0.366315
1.005,-0.369884
1.006,-0.371182
1.007,-0.370857
1.008,-0.368586
1.009,-0.363071
1.01,-0.355285
1.011,-0.352689
1.012,-0.359502
1.013,-0.367937
1.014,-0.367937
1.015,-0.365342
1.016,-0.357556
1.017,-0.350094
1.018,-0.330628
1.019,-0.323815
1.02,-0.326735
1.021,-0.322517
1.022,-0.338414
1.023,-0.357231
1.024,-0.374101
1.025,-0.38351
1.026,-0.379617
1.027,-0.368262
1.028,-0.363395
1.029,-0.365342
1.03,-0.358204
1.031,-0.353338
1.032,-0.365991
1.033,-0.383186
1.034,-0.39746
1.035,-0.404273
1.036,-0.408815
1.037,-0.412384
1.038,-0.416602
1.039,-0.417899
1.04,-0.41206
1.041,-0.404598
1.042,-0.401678
1.043,-0.410113
1.044,-0.421793
1.045,-0.43185
1.046,-0.439961
1.047,-0.446449
1.048,-0.456182
1.049,-0.46332
1.05,-0.470457
1.051,-0.473377
1.052,-0.472404
1.053,-0.475323
1.054,-0.467537
1.055,-0.458453
1.056,-0.46332
1.057,-0.489274
1.058,-0.506144
1.059,-0.530801
1.06,-0.546373
1.061,-0.547996
1.062,-0.547671
1.063,-0.559351
1.064,-0.574274
1.065,-0.582385
1.066,-0.597958
1.067,-0.612881
1.068,-0.629103
1.069,-0.640782
1.07,-0.651813
1.071,-0.655706
1.072,-0.657977
1.073,-0.663168
1.074,-0.673874
1.075,-0.686851
1.076,-0.705668
1.077,-0.724485
1.078,-0.746222
1.079,-0.778989
1.08,-0.804295
1.081,-0.82376
1.082,-0.850039
1.083,-0.882158
1.084,-0.900326
1.085,-0.902921
1.086,-0.901623
1.087,-0.887673
1.088,-0.857825
1.089,-0.819218
1.09,-0.770878
1.091,-0.717023
1.092,-0.660897
1.093,-0.605095
1.094,-0.537289
1.095,-0.466888
1.096,-0.400056
1.097,-0.341983
1.098,-0.301105
1.099,-0.262498
1.1,-0.229082
1.101,-0.196639
1.102,-0.168089
1.103,-0.150245
1.104,-0.14765
1.105,-0.142134
1.106,-0.129157
1.107,-0.112611
1.108,-0.09639
1.109,-0.082764
1.11,-0.075951
1.111,-0.077573
1.112,-0.071733
1.113,-0.056485
1.114,-0.036695
1.115,-0.034099
1.116,-0.044157
1.117,-0.047077
1.118,-0.040264
1.119,-0.031828
1.12,-0.031828
1.121,-0.028909
1.122,-0.027935
1.123,-0.021447
1.124,-0.012687
1.125,-0.007172
1.126,-0.002305
1.127,0.004832
1.128,0.012943
1.129,0.017485
1.13,0.021378
1.131,0.02008
1.132,0.017485
1.133,0.020405
1.134,0.024947
1.135,0.026245
1.136,0.025271
1.137,0.014565
1.138,0.014889
1.139,0.017485
1.14,0.02008
1.141,0.022027
1.142,0.023973
1.143,0.028516
1.144,0.032733
1.145,0.023973
1.146,0.017809
1.147,0.010347
1.148,0.011321
1.149,0.002561
1.15,-0.003603
1.151,-0.004252
1.152,-0.002305
1.153,-0.003927
1.154,-0.003927
1.155,-0.004576
1.156,-0.016905
1.157,-0.023069
1.158,-0.021447
1.159,-0.014634
1.16,-0.011714
1.161,-0.011389
1.162,-0.014958
1.163,-0.023393
1.164,-0.033775
1.165,-0.035722
1.166,-0.031504
1.167,-0.035397
1.168,-0.042859
1.169,-0.037668
1.17,-0.026638
1.171,-0.013985
1.172,-3.43E-05
1.173,0.003859
1.174,-0.000683
1.175,-0.00263
1.176,-0.001981
1.177,-0.004576
1.178,-0.004901
1.179,-0.001981
1.18,-0.000359
1.181,0.00321
1.182,0.005805
1.183,0.000939
1.184,-0.005225
1.185,-3.43E-05
1.186,0.007752
1.187,0.015538
1.188,0.021378
1.189,0.013592
1.19,0.003859
1.191,-0.004252
1.192,-0.010092
1.193,-0.006847
1.194,0.007428
1.195,0.015538
1.196,0.018134
1.197,0.019107
1.198,0.022676
1.199,0.023325
1.2,0.021378
1.201,0.018458
1.202,0.013267
1.203,0.022351
1.204,0.030462
1.205,0.035653
1.206,0.034355
1.207,0.031435
1.208,0.039871
1.209,0.058039
1.21,0.074585
1.211,0.075558
1.212,0.081073
1.213,0.088859
1.214,0.089833
1.215,0.091455
1.216,0.093726
1.217,0.090157
1.218,0.086264
1.219,0.084317
1.22,0.092753
1.221,0.111894
1.222,0.132982
1.223,0.153097
1.224,0.178402
1.225,0.204681
1.226,0.229662
1.227,0.252696
1.228,0.271189
1.229,0.277678
1.23,0.277678
1.231,0.277678
1.232,0.273136
1.233,0.264051
1.234,0.26178
1.235,0.262754
1.236,0.266647
1.237,0.2647
1.238,0.252696
1.239,0.231933
1.24,0.191055
1.241,0.141417
1.242,0.103459
1.243,0.084966
1.244,0.083669
1.245,0.089833
1.246,0.085615
1.247,0.073936
1.248,0.071016
1.249,0.074585
1.25,0.092428
1.251,0.083669
1.252,0.055119
1.253,0.03176
1.254,0.024298
1.255,0.033706
1.256,0.039546
1.257,0.037924
1.258,0.022676
1.259,0.010672
1.26,0.008401
1.261,0.011321
1.262,0.019431
1.263,0.029813
1.264,0.037275
1.265,0.043439
1.266,0.051874
1.267,0.056416
1.268,0.058363
1.269,0.056092
1.27,0.059012
1.271,0.063229
1.272,0.063554
1.273,0.0655
1.274,0.073287
1.275,0.076531
1.276,0.07426
1.277,0.066798
1.278,0.066798
1.279,0.071016
1.28,0.071989
1.281,0.064527
1.282,0.058363
1.283,0.058363
1.284,0.063554
1.285,0.07426
1.286,0.075233
1.287,0.07426
1.288,0.068096
1.289,0.067447
1.29,0.069718
1.291,0.078802
1.292,0.08594
1.293,0.092104
1.294,0.095997
1.295,0.095024
1.296,0.098917
1.297,0.112867
1.298,0.11968
1.299,0.113516
1.3,0.107676
1.301,0.100214
1.302,0.095997
1.303,0.096646
1.304,0.107027
1.305,0.10865
1.306,0.077829
1.307,0.015863
1.308,-0.046103
1.309,-0.135646
1.31,-0.279693
1.311,-0.461049
1.312,-0.656355
1.313,-0.846795
1.314,-1.004143
1.315,-1.096281
1.316,-1.120937
1.317,-1.0713
1.318,-0.93504
1.319,-0.739084
1.32,-0.469159
1.321,-0.12494
1.322,0.306876
1.323,0.756861
1.324,1.195166
1.325,1.627632
1.326,2.03609
1.327,2.394911
1.328,2.715449
1.329,2.952609
1.33,3.10866
1.331,3.167058
1.332,3.094385
1.333,2.884478
1.334,2.569455
1.335,2.20447
1.336,1.828454
1.337,1.472554
1.338,1.136768
1.339,0.843483
1.34,0.629035
1.341,0.471687
1.342,0.384091
1.343,0.353594
1.344,0.348079
1.345,0.356838
1.346,0.371762
1.347,0.369491
1.348,0.345159
1.349,0.317907
1.35,0.293575
1.351,0.262105
1.352,0.240044
1.353,0.218631
1.354,0.198192
1.355,0.174184
1.356,0.141093
1.357,0.10573
1.358,0.080424
1.359,0.064527
1.36,0.068096
1.361,0.066474
1.362,0.055768
1.363,0.043439
1.364,0.022676
1.365,-0.001656
1.366,-0.012038
1.367,-0.013985
1.368,-0.014958
1.369,-0.00555
1.37,-0.011714
1.371,-0.028909
1.372,-0.041886
1.373,-0.045779
1.374,-0.043508
1.375,-0.040912
1.376,-0.049672
1.377,-0.062649
1.378,-0.06492
1.379,-0.061351
1.38,-0.053241
1.381,-0.049996
1.382,-0.051294
1.383,-0.056809
1.384,-0.059729
1.385,-0.065894
1.386,-0.073031
1.387,-0.082764
1.388,-0.079844
1.389,-0.0766
1.39,-0.077249
1.391,-0.080817
1.392,-0.095417
1.393,-0.101256
1.394,-0.103203
1.395,-0.113585
1.396,-0.121371
1.397,-0.125913
1.398,-0.1191
1.399,-0.114882
1.4,-0.111962
1.401,-0.121695
1.402,-0.126886
1.403,-0.124615
1.404,-0.114234
1.405,-0.115856
1.406,-0.118127
1.407,-0.120398
1.408,-0.124615
1.409,-0.13305
1.41,-0.146676
1.411,-0.164845
1.412,-0.181715
1.413,-0.184959
1.414,-0.179768
1.415,-0.175551
1.416,-0.181066
1.417,-0.190799
1.418,-0.202803
1.419,-0.20994
1.42,-0.223566
1.421,-0.236543
1.422,-0.243356
1.423,-0.243681
1.424,-0.250169
1.425,-0.253089
1.426,-0.253738
1.427,-0.252116
1.428,-0.246601
1.429,-0.266391
1.43,-0.287479
1.431,-0.301429
1.432,-0.30954
1.433,-0.311162
1.434,-0.313433
1.435,-0.317651
1.436,-0.319273
1.437,-0.317975
1.438,-0.319273
1.439,-0.330952
1.44,-0.336468
1.441,-0.334846
1.442,-0.341983
1.443,-0.347823
1.444,-0.353987
1.445,-0.361449
1.446,-0.368911
1.447,-0.372155
1.448,-0.365017
1.449,-0.370533
1.45,-0.381563
1.451,-0.386754
1.452,-0.4033
1.453,-0.422766
1.454,-0.441583
1.455,-0.465591
1.456,-0.481163
1.457,-0.495438
1.458,-0.512957
1.459,-0.538912
1.46,-0.561622
1.461,-0.586927
1.462,-0.602175
1.463,-0.609637
1.464,-0.602824
1.465,-0.585629
1.466,-0.561946
1.467,-0.520419
1.468,-0.463968
1.469,-0.395838
1.47,-0.3183
1.471,-0.243681
1.472,-0.180417
1.473,-0.132077
1.474,-0.087306
1.475,-0.04805
1.476,-0.015282
1.477,0.011645
1.478,0.027867
1.479,0.039871
1.48,0.051226
1.481,0.062581
1.482,0.070043
1.483,0.081722
1.484,0.087237
1.485,0.098268
1.486,0.120005
1.487,0.129089
1.488,0.118058
1.489,0.105081
1.49,0.106379
1.491,0.118058
1.492,0.130711
1.493,0.137848
1.494,0.138822
1.495,0.135577
1.496,0.133631
1.497,0.119356
1.498,0.120654
1.499,0.140444
1.5,0.15699
1.501,0.153745
1.502,0.152123
1.503,0.160883
1.504,0.168345
1.505,0.17094
1.506,0.181971
1.507,0.177104
1.508,0.154394
1.509,0.147906
1.51,0.147581
1.511,0.141741
1.512,0.129413
1.513,0.130386
1.514,0.141417
1.515,0.150177
1.516,0.139795
1.517,0.123573
1.518,0.119031
1.519,0.111894
1.52,0.103134
1.521,0.091455
1.522,0.088535
1.523,0.088859
1.524,0.089508
1.525,0.085291
1.526,0.084317
1.527,0.088535
1.528,0.083993
1.529,0.080424
1.53,0.083993
1.531,0.087237
1.532,0.091779
1.533,0.090806
1.534,0.087886
1.535,0.09113
1.536,0.108974
1.537,0.117734
1.538,0.113516
1.539,0.109623
1.54,0.106703
1.541,0.090806
1.542,0.077829
1.543,0.075882
1.544,0.086264
1.545,0.093077
1.546,0.095348
1.547,0.095024
1.548,0.092428
1.549,0.092104
1.55,0.095997
1.551,0.09989
1.552,0.09405
1.553,0.087237
1.554,0.075233
1.555,0.05155
1.556,0.031435
1.557,0.026569
1.558,0.036302
1.559,0.041817
1.56,0.041493
1.561,0.03176
1.562,0.02592
1.563,0.021378
1.564,0.019431
1.565,0.010347
1.566,0.008401
1.567,0.010672
1.568,0.018783
1.569,0.025271
1.57,0.024622
1.571,0.024622
1.572,0.02592
1.573,0.025596
1.574,0.028516
1.575,0.030462
1.576,0.023649
1.577,0.015538
1.578,0.028191
1.579,0.041168
1.58,0.050901
1.581,0.04863
1.582,0.035653
1.583,0.031435
1.584,0.027218
1.585,0.02008
1.586,0.015863
1.587,0.020405
1.588,0.034355
1.589,0.040195
1.59,0.043439
1.591,0.056741
1.592,0.071665
1.593,0.089833
1.594,0.089508
1.595,0.070691
1.596,0.050901
1.597,0.042466
1.598,0.036951
1.599,0.045386
1.6,0.067447
1.601,0.095348
1.602,0.118058
1.603,0.114165
1.604,0.101188
1.605,0.090157
1.606,0.096646
1.607,0.106379
1.608,0.122276
1.609,0.153097
1.61,0.185215
1.611,0.20825
1.612,0.224471
1.613,0.236475
1.614,0.236799
1.615,0.235177
1.616,0.239395
1.617,0.240693
1.618,0.229337
1.619,0.215063
1.62,0.205005
1.621,0.196246
1.622,0.184242
1.623,0.168345
1.624,0.151474
1.625,0.12844
1.626,0.097619
1.627,0.073936
1.628,0.061932
1.629,0.05155
1.63,0.033382
1.631,0.015538
1.632,0.010996
1.633,0.019431
1.634,0.03468
1.635,0.024622
1.636,0.012618
1.637,0.01197
1.638,-0.000683
1.639,-0.009118
1.64,-0.013336
1.641,0.002886
1.642,0.018783
1.643,0.012294
1.644,-0.011714
1.645,-0.018202
1.646,-0.02826
1.647,-0.048374
1.648,-0.057134
1.649,-0.057134
1.65,-0.056485
1.651,-0.058756
1.652,-0.064596
1.653,-0.069462
1.654,-0.068165
1.655,-0.06492
1.656,-0.063622
1.657,-0.062649
1.658,-0.05389
1.659,-0.048374
1.66,-0.048699
1.661,-0.047077
1.662,-0.036695
1.663,-0.038317
1.664,-0.041561
1.665,-0.038317
1.666,-0.041886
1.667,-0.037344
1.668,-0.026962
1.669,-0.022096
1.67,-0.024042
1.671,-0.030531
1.672,-0.030855
1.673,-0.030531
1.674,-0.030855
1.675,-0.025664
1.676,-0.014958
1.677,-0.004576
1.678,0.003534
1.679,0.003534
1.68,0.002886
1.681,0.012943
1.682,0.023973
1.683,0.045061
1.684,0.056741
1.685,0.050577
1.686,0.034355
1.687,0.040844
1.688,0.055443
1.689,0.050577
1.69,0.024947
1.691,-0.025989
1.692,-0.100607
1.693,-0.19891
1.694,-0.325113
1.695,-0.488301
1.696,-0.670305
1.697,-0.866261
1.698,-1.047941
1.699,-1.168628
1.7,-1.215346
1.701,-1.187121
1.702,-1.069353
1.703,-0.890917
1.704,-0.648893
1.705,-0.334846
1.706,0.071016
1.707,0.537546
1.708,1.006996
1.709,1.449844
1.71,1.881012
1.711,2.261894
1.712,2.610982
1.713,2.887073
1.714,3.073622
1.715,3.182955
1.716,3.178089
1.717,3.020415
1.718,2.745946
1.719,2.400426
1.72,2.040308
1.721,1.677919
1.722,1.320072
1.723,0.976175
1.724,0.708196
1.725,0.524244
1.726,0.401934
1.727,0.340617
1.728,0.311743
1.729,0.301685
1.73,0.305578
1.731,0.305578
1.732,0.293575
1.733,0.285464
1.734,0.274433
1.735,0.260807
1.736,0.239395
1.737,0.209547
1.738,0.172562
1.739,0.134928
1.74,0.112867
1.741,0.09113
1.742,0.066474
1.743,0.046684
1.744,0.035004
1.745,0.018458
1.746,0.002237
1.747,-0.010092
1.748,-0.020149
1.749,-0.037019
1.75,-0.04805
1.751,-0.061351
1.752,-0.071733
1.753,-0.081466
1.754,-0.087955
1.755,-0.091523
1.756,-0.09931
1.757,-0.099959
1.758,-0.102878
1.759,-0.113585
1.76,-0.123642
1.761,-0.12202
1.762,-0.122669
1.763,-0.121695
1.764,-0.113909
1.765,-0.114234
1.766,-0.125264
1.767,-0.133699
1.768,-0.129157
1.769,-0.130455
1.77,-0.141161
1.771,-0.155112
1.772,-0.175226
1.773,-0.177822
1.774,-0.175875
1.775,-0.184959
1.776,-0.19015
1.777,-0.182039
1.778,-0.18431
1.779,-0.183013
1.78,-0.18139
1.781,-0.189501
1.782,-0.210913
1.783,-0.230055
1.784,-0.243681
1.785,-0.24725
1.786,-0.243681
1.787,-0.241734
1.788,-0.237517
1.789,-0.237192
1.79,-0.238814
1.791,-0.242059
1.792,-0.24725
1.793,-0.255036
1.794,-0.255685
1.795,-0.256658
1.796,-0.256334
1.797,-0.267364
1.798,-0.282288
1.799,-0.284883
1.8,-0.27807
1.801,-0.274502
1.802,-0.284235
1.803,-0.293643
1.804,-0.308567
1.805,-0.332899
1.806,-0.345227
1.807,-0.346201
1.808,-0.339712
1.809,-0.334197
1.81,-0.342307
1.811,-0.351391
1.812,-0.347498
1.813,-0.342956
1.814,-0.358204
1.815,-0.377021
1.816,-0.400056
1.817,-0.427957
1.818,-0.450667
1.819,-0.465915
1.82,-0.478568
1.821,-0.486678
1.822,-0.485381
1.823,-0.478568
1.824,-0.479217
1.825,-0.488625
1.826,-0.492843
1.827,-0.49414
1.828,-0.496087
1.829,-0.491869
1.83,-0.487976
1.831,-0.493816
1.832,-0.498682
1.833,-0.506469
1.834,-0.513606
1.835,-0.524312
1.836,-0.541831
1.837,-0.558702
1.838,-0.574599
1.839,-0.591794
1.84,-0.612233
1.841,-0.640133
1.842,-0.666088
1.843,-0.684256
1.844,-0.693989
1.845,-0.712481
1.846,-0.726432
1.847,-0.734542
1.848,-0.742329
1.849,-0.740058
1.85,-0.717672
1.851,-0.674523
1.852,-0.61937
1.853,-0.563893
1.854,-0.499656
1.855,-0.438663
1.856,-0.385781
1.857,-0.327708
1.858,-0.270284
1.859,-0.222917
1.86,-0.182364
1.861,-0.140837
1.862,-0.110665
1.863,-0.089577
1.864,-0.061676
1.865,-0.029882
1.866,-0.025015
1.867,-0.033126
1.868,-0.030206
1.869,-0.024367
1.87,-0.015931
1.871,-0.014958
1.872,-0.016256
1.873,-0.018851
1.874,-0.023393
1.875,-0.0195
1.876,-0.006523
1.877,-3.43E-05
1.878,-0.002305
1.879,-0.003603
1.88,-0.000683
1.881,0.008725
1.882,0.016187
1.883,0.017485
1.884,0.022027
1.885,0.028191
1.886,0.02008
1.887,0.011645
1.888,0.010672
1.889,0.014889
1.89,0.021378
1.891,0.035653
1.892,0.049279
1.893,0.041493
1.894,0.033382
1.895,0.032733
1.896,0.036302
1.897,0.044088
1.898,0.05447
1.899,0.046684
1.9,0.044413
1.901,0.043115
1.902,0.043115
1.903,0.04571
1.904,0.040844
1.905,0.039222
1.906,0.040844
1.907,0.036951
1.908,0.030138
1.909,0.028516
1.91,0.019756
1.911,0.008401
1.912,0.001263
1.913,0.00321
1.914,0.005481
1.915,-0.009443
1.916,-0.018527
1.917,-0.018527
1.918,-0.01658
1.919,-0.01658
1.92,-0.017553
1.921,-0.016905
1.922,-0.014958
1.923,-0.006523
1.924,0.004508
1.925,0.010996
1.926,0.016836
1.927,0.022676
1.928,0.026893
1.929,0.029813
1.93,0.030462
1.931,0.032409
1.932,0.043115
1.933,0.045061
1.934,0.036302
1.935,0.044088
1.936,0.055768
1.937,0.057065
1.938,0.036626
1.939,0.021378
1.94,0.015863
1.941,0.01716
1.942,0.024622
1.943,0.035653
1.944,0.040844
1.945,0.035653
1.946,0.030787
1.947,0.029164
1.948,0.023973
1.949,0.02592
1.95,0.020729
1.951,0.015214
1.952,0.013592
1.953,0.015214
1.954,0.016187
1.955,0.018458
1.956,0.023325
1.957,0.029813
1.958,0.040844
1.959,0.043439
1.96,0.04279
1.961,0.033058
1.962,0.028516
1.963,0.029813
1.964,0.040844
1.965,0.05447
1.966,0.057714
1.967,0.049279
1.968,0.035977
1.969,0.030138
1.97,0.018458
1.971,0.013916
1.972,0.020405
1.973,0.029164
1.974,0.024298
1.975,0.02592
1.976,0.029813
1.977,0.021378
1.978,0.024298
1.979,0.035653
1.98,0.041168
1.981,0.040195
1.982,0.047008
1.983,0.052199
1.984,0.047332
1.985,0.040844
1.986,0.044737
1.987,0.055443
1.988,0.056092
1.989,0.062256
1.99,0.066798
1.991,0.056092
1.992,0.047008
1.993,0.048955
1.994,0.057065
1.995,0.079127
1.996,0.121302
1.997,0.160558
1.998,0.186837
1.999,0.197543
2,0.202734
2.001,0.203383
2.002,0.199814
2.003,0.193975
2.004,0.195597
2.005,0.193326
2.006,0.189108
2.007,0.182944
2.008,0.175807
2.009,0.160558
2.01,0.140119
2.011,0.112867
2.012,0.08302
2.013,0.059661
2.014,0.037275
2.015,0.013592
2.016,-0.001981
2.017,-0.011389
2.018,-0.016905
2.019,-0.027611
2.02,-0.041561
2.021,-0.050321
2.022,-0.052916
2.023,-0.054863
2.024,-0.056485
2.025,-0.061027
2.026,-0.062
2.027,-0.054538
2.028,-0.049672
2.029,-0.053241
2.03,-0.04805
2.031,-0.039939
2.032,-0.035722
2.033,-0.037993
2.034,-0.043508
2.035,-0.047077
2.036,-0.053565
2.037,-0.049672
2.038,-0.054863
2.039,-0.057134
2.04,-0.062
2.041,-0.062325
2.042,-0.062974
2.043,-0.059729
2.044,-0.053241
2.045,-0.050645
2.046,-0.052267
2.047,-0.046752
2.048,-0.046752
2.049,-0.050645
2.05,-0.043183
2.051,-0.038317
2.052,-0.037344
2.053,-0.035073
2.054,-0.036046
2.055,-0.038966
2.056,-0.043508
2.057,-0.041561
2.058,-0.036695
2.059,-0.035073
2.06,-0.037344
2.061,-0.042535
2.062,-0.041561
2.063,-0.031828
2.064,-0.011714
2.065,0.007752
2.066,0.009699
2.067,0.000939
2.068,-0.008469
2.069,-0.011714
2.07,-0.01658
2.071,-0.02534
2.072,-0.021771
2.073,-0.01366
2.074,-0.006523
2.075,-0.007172
2.076,-0.017553
2.077,-0.043508
2.078,-0.092821
2.079,-0.161276
2.08,-0.268013
2.081,-0.421468
2.082,-0.603473
2.083,-0.802672
2.084,-0.994086
2.085,-1.135861
2.086,-1.21567
2.087,-1.241949
2.088,-1.181281
2.089,-1.018093
2.09,-0.793264
2.091,-0.511011
2.092,-0.145379
2.093,0.289357
2.094,0.750696
2.095,1.206521
2.096,1.66267
2.097,2.080213
2.098,2.435465
2.099,2.727129
2.1,2.931845
2.101,3.074595
2.102,3.12326
2.103,3.037285
2.104,2.80045
2.105,2.455904
2.106,2.06756
2.107,1.68538
2.108,1.34116
2.109,0.999859
2.11,0.694894
2.111,0.473633
2.112,0.318556
2.113,0.23388
2.114,0.20825
2.115,0.210196
2.116,0.223498
2.117,0.232906
2.118,0.232257
2.119,0.212143
2.12,0.184891
2.121,0.161532
2.122,0.132982
2.123,0.098917
2.124,0.069394
2.125,0.038897
2.126,0.011321
2.127,-0.010416
2.128,-0.030531
2.129,-0.042859
2.13,-0.051294
2.131,-0.060378
2.132,-0.05908
2.133,-0.05908
2.134,-0.066867
2.135,-0.078222
2.136,-0.08763
2.137,-0.092821
2.138,-0.11034
2.139,-0.120398
2.14,-0.12786
2.141,-0.128184
2.142,-0.132077
2.143,-0.141161
2.144,-0.141161
2.145,-0.135321
2.146,-0.125589
2.147,-0.126562
2.148,-0.134024
2.149,-0.142459
2.15,-0.140188
2.151,-0.130131
2.152,-0.127211
2.153,-0.127535
2.154,-0.121695
2.155,-0.122669
2.156,-0.125589
2.157,-0.137592
2.158,-0.141486
2.159,-0.153165
2.16,-0.177173
2.161,-0.186906
2.162,-0.184959
2.163,-0.175226
2.164,-0.173929
2.165,-0.170684
2.166,-0.176524
2.167,-0.185932
2.168,-0.19599
2.169,-0.203127
2.17,-0.207345
2.171,-0.206696
2.172,-0.206371
2.173,-0.189501
2.174,-0.180742
2.175,-0.198261
2.176,-0.219349
2.177,-0.219349
2.178,-0.218051
2.179,-0.228433
2.18,-0.232975
2.181,-0.242383
2.182,-0.256658
2.183,-0.268013
2.184,-0.2612
2.185,-0.256982
2.186,-0.265093
2.187,-0.279044
2.188,-0.290723
2.189,-0.29267
2.19,-0.293319
2.191,-0.303051
2.192,-0.315704
2.193,-0.328033
2.194,-0.336792
2.195,-0.341983
2.196,-0.347498
2.197,-0.353662
2.198,-0.359502
2.199,-0.362098
2.2,-0.367613
2.201,-0.376697
2.202,-0.391945
2.203,-0.403625
2.204,-0.406869
2.205,-0.404598
2.206,-0.409789
2.207,-0.417575
2.208,-0.419846
2.209,-0.415628
2.21,-0.423739
2.211,-0.439961
2.212,-0.450991
2.213,-0.448071
2.214,-0.45164
2.215,-0.458778
2.216,-0.458129
2.217,-0.453587
2.218,-0.458453
2.219,-0.47143
2.22,-0.486678
2.221,-0.496736
2.222,-0.509389
2.223,-0.523663
2.224,-0.539885
2.225,-0.565515
2.226,-0.596336
2.227,-0.621317
2.228,-0.634294
2.229,-0.649218
2.23,-0.663168
2.231,-0.672576
2.232,-0.687825
2.233,-0.707615
2.234,-0.700153
2.235,-0.692367
2.236,-0.683607
2.237,-0.645649
2.238,-0.610286
2.239,-0.573626
2.24,-0.508091
2.241,-0.444503
2.242,-0.382212
2.243,-0.314731
2.244,-0.248872
2.245,-0.194043
2.246,-0.159005
2.247,-0.12202
2.248,-0.080168
2.249,-0.046103
2.25,-0.015931
2.251,-0.004252
2.252,-0.003603
2.253,-0.001332
2.254,0.000615
2.255,-0.000683
2.256,0.001263
2.257,0.005481
2.258,0.013592
2.259,0.02008
2.26,0.026569
2.261,0.035329
2.262,0.044088
2.263,0.050577
2.264,0.056416
2.265,0.057714
2.266,0.053172
2.267,0.042142
2.268,0.032733
2.269,0.023649
2.27,0.015214
2.271,0.008076
2.272,0.002237
2.273,0.000615
2.274,0.005805
2.275,0.018458
2.276,0.020729
2.277,0.019756
2.278,0.028191
2.279,0.029164
2.28,0.021702
2.281,0.011645
2.282,0.004183
2.283,0.007752
2.284,0.020405
2.285,0.025271
2.286,0.023325
2.287,0.022676
2.288,0.022351
2.289,0.017485
2.29,0.01197
2.291,0.00905
2.292,0.010023
2.293,0.012618
2.294,0.019756
2.295,0.026893
2.296,0.030462
2.297,0.027218
2.298,0.030462
2.299,0.031111
2.3,0.019431
2.301,0.017809
2.302,0.019431
2.303,0.013592
2.304,0.01716
2.305,0.024622
2.306,0.027218
2.307,0.028191
2.308,0.026569
2.309,0.029164
2.31,0.036626
2.311,0.066149
2.312,0.095672
2.313,0.066798
2.314,0.047008
2.315,0.050901
2.316,0.028516
2.317,0.016836
2.318,0.017485
2.319,0.023973
2.32,0.028191
2.321,0.026893
2.322,0.03176
2.323,0.041493
2.324,0.046359
2.325,0.049928
2.326,0.054145
2.327,0.057714
2.328,0.062581
2.329,0.070043
2.33,0.072638
2.331,0.063554
2.332,0.057714
2.333,0.055119
2.334,0.046684
2.335,0.043764
2.336,0.046684
2.337,0.050252
2.338,0.057714
2.339,0.065825
2.34,0.072962
2.341,0.076856
2.342,0.082371
2.343,0.080424
2.344,0.072638
2.345,0.069394
2.346,0.073287
2.347,0.07426
2.348,0.075233
2.349,0.081073
2.35,0.095348
2.351,0.098268
2.352,0.09113
2.353,0.087886
2.354,0.086264
2.355,0.081722
2.356,0.071989
2.357,0.063554
2.358,0.051874
2.359,0.038248
2.36,0.041168
2.361,0.044088
2.362,0.039871
2.363,0.038248
2.364,0.041817
2.365,0.045061
2.366,0.051874
2.367,0.067447
2.368,0.069394
2.369,0.066149
2.37,0.066474
2.371,0.063878
2.372,0.074585
2.373,0.087562
2.374,0.087886
2.375,0.084966
2.376,0.095348
2.377,0.101837
2.378,0.100539
2.379,0.103459
2.38,0.09989
2.381,0.084966
2.382,0.087886
2.383,0.090482
2.384,0.095348
2.385,0.096321
2.386,0.114489
2.387,0.138822
2.388,0.153745
2.389,0.166723
2.39,0.186837
2.391,0.195272
2.392,0.17678
2.393,0.175158
2.394,0.186188
2.395,0.190406
2.396,0.19073
2.397,0.198517
2.398,0.206627
2.399,0.183917
2.4,0.163478
2.401,0.143688
2.402,0.116112
2.403,0.093401
2.404,0.079127
2.405,0.070043
2.406,0.056092
2.407,0.033058
2.408,0.012294
2.409,-0.006198
2.41,-0.018202
2.411,-0.018851
2.412,-0.019825
2.413,-0.016256
2.414,-0.0195
2.415,-0.036695
2.416,-0.049996
2.417,-0.043832
2.418,-0.02826
2.419,-0.011714
2.42,-0.003279
2.421,-0.009443
2.422,-0.017553
2.423,-0.021122
2.424,-0.020473
2.425,-0.016905
2.426,0.000939
2.427,0.023325
2.428,0.020729
2.429,0.006454
2.43,0.00321
2.431,0.008401
2.432,0.01197
2.433,0.006779
2.434,0.013916
2.435,0.038897
2.436,0.041493
2.437,0.013267
2.438,0.001912
2.439,0.00321
2.44,0.00029
2.441,0.007428
2.442,0.012943
2.443,0.005481
2.444,0.004183
2.445,0.012294
2.446,0.014565
2.447,0.011321
2.448,0.006454
2.449,-0.001332
2.45,-0.006847
2.451,-0.006523
2.452,-0.003279
2.453,0.000939
2.454,0.012943
2.455,0.021702
2.456,0.022676
2.457,0.015214
2.458,0.005805
2.459,0.004832
2.46,0.007428
2.461,0.004183
2.462,-0.000683
2.463,0.00029
2.464,-0.003279
2.465,-0.0195
2.466,-0.046428
2.467,-0.095741
2.468,-0.165818
2.469,-0.256334
2.47,-0.391945
2.471,-0.57103
2.472,-0.769256
2.473,-0.963589
2.474,-1.118017
2.475,-1.214697
2.476,-1.259793
2.477,-1.216644
2.478,-1.066109
2.479,-0.850688
2.48,-0.576221
2.481,-0.230704
2.482,0.204356
2.483,0.688081
2.484,1.163696
2.485,1.622765
2.486,2.053934
2.487,2.405942
2.488,2.710583
2.489,2.933143
2.49,3.089194
2.491,3.161218
2.492,3.112878
2.493,2.917894
2.494,2.599627
2.495,2.213554
2.496,1.820019
2.497,1.460874
2.498,1.112112
2.499,0.798063
2.5,0.557985
2.501,0.384091
2.502,0.277678
2.503,0.247181
2.504,0.277029
2.505,0.293899
2.506,0.270865
2.507,0.248479
2.508,0.238097
2.509,0.214414
2.51,0.189108
2.511,0.165425
2.512,0.139795
2.513,0.112218
2.514,0.097295
2.515,0.079127
2.516,0.041817
2.517,0.01197
2.518,-3.43E-05
2.519,-0.004901
2.52,-0.012363
2.521,-0.025664
2.522,-0.051294
2.523,-0.068813
2.524,-0.077573
2.525,-0.080493
2.526,-0.081791
2.527,-0.092172
2.528,-0.100607
2.529,-0.11034
2.53,-0.117153
2.531,-0.116505
2.532,-0.12494
2.533,-0.149596
2.534,-0.167764
2.535,-0.160951
2.536,-0.155436
2.537,-0.156409
2.538,-0.160302
2.539,-0.163547
2.54,-0.168738
2.541,-0.166791
2.542,-0.163547
2.543,-0.16452
2.544,-0.170684
2.545,-0.1762
2.546,-0.182364
2.547,-0.190799
2.548,-0.188528
2.549,-0.194692
2.55,-0.213833
2.551,-0.222269
2.552,-0.220646
2.553,-0.235246
2.554,-0.256658
2.555,-0.258605
2.556,-0.254063
2.557,-0.249845
2.558,-0.247898
2.559,-0.248547
2.56,-0.248872
2.561,-0.24725
2.562,-0.24725
2.563,-0.250818
2.564,-0.262173
2.565,-0.268662
2.566,-0.27807
2.567,-0.294616
2.568,-0.301429
2.569,-0.294616
2.57,-0.290074
2.571,-0.297536
2.572,-0.308891
2.573,-0.308242
2.574,-0.300132
2.575,-0.307918
2.576,-0.317326
2.577,-0.327059
2.578,-0.328681
2.579,-0.322193
2.58,-0.31246
2.581,-0.305647
2.582,-0.314082
2.583,-0.330952
2.584,-0.341983
2.585,-0.338414
2.586,-0.330628
2.587,-0.328033
2.588,-0.327384
2.589,-0.327708
2.59,-0.331601
2.591,-0.337117
2.592,-0.337441
2.593,-0.347174
2.594,-0.358529
2.595,-0.370208
2.596,-0.380266
2.597,-0.391945
2.598,-0.401029
2.599,-0.409789
2.6,-0.408815
2.601,-0.399083
2.602,-0.398758
2.603,-0.426983
2.604,-0.459426
2.605,-0.478568
2.606,-0.489923
2.607,-0.499007
2.608,-0.511984
2.609,-0.52269
2.61,-0.535992
2.611,-0.548644
2.612,-0.567786
2.613,-0.585305
2.614,-0.603797
2.615,-0.623588
2.616,-0.64792
2.617,-0.668683
2.618,-0.6875
2.619,-0.720916
2.62,-0.757577
2.621,-0.778989
2.622,-0.791642
2.623,-0.801375
2.624,-0.794237
2.625,-0.772176
2.626,-0.734218
2.627,-0.685554
2.628,-0.640782
2.629,-0.584981
2.63,-0.514579
2.631,-0.445152
2.632,-0.386754
2.633,-0.335819
2.634,-0.280341
2.635,-0.229082
2.636,-0.186257
2.637,-0.151218
2.638,-0.125264
2.639,-0.103852
2.64,-0.088279
2.641,-0.086657
2.642,-0.081791
2.643,-0.064596
2.644,-0.053241
2.645,-0.037344
2.646,-0.015931
2.647,0.004183
2.648,0.006454
2.649,0.001263
2.65,-0.007172
2.651,-0.020149
2.652,-0.034099
2.653,-0.04513
2.654,-0.048699
2.655,-0.039615
2.656,-0.029882
2.657,-0.029882
2.658,-0.022744
2.659,-0.00263
2.66,0.005805
2.661,-0.003279
2.662,-0.023069
2.663,-0.04805
2.664,-0.055836
2.665,-0.061351
2.666,-0.065569
2.667,-0.056161
2.668,-0.048374
2.669,-0.043508
2.67,-0.038317
2.671,-0.043508
2.672,-0.040912
2.673,-0.02534
2.674,-0.024367
2.675,-0.026638
2.676,-0.021122
2.677,-0.018851
2.678,-0.0195
2.679,-0.012363
2.68,-0.003279
2.681,0.002237
2.682,0.000615
2.683,-0.00555
2.684,-0.008794
2.685,-0.008469
2.686,-0.000359
2.687,0.002237
2.688,-0.001981
2.689,-0.007496
2.69,-0.002305
2.691,0.006454
2.692,0.008725
2.693,0.013592
2.694,0.023973
2.695,0.023973
2.696,0.018783
2.697,0.010996
2.698,-0.004576
2.699,-0.017878
2.7,-0.021122
2.701,-0.013985
2.702,-0.008145
2.703,-0.003279
2.704,-0.003279
2.705,0.000615
2.706,0.004832
2.707,-0.001981
2.708,-0.00555
2.709,0.006454
2.71,0.023325
2.711,0.02884
2.712,0.029164
2.713,0.023325
2.714,-0.001656
2.715,-0.021122
2.716,-0.022096
2.717,-0.002305
2.718,0.02592
2.719,0.018458
2.72,-0.010092
2.721,-0.023718
2.722,-0.03637
2.723,-0.041237
2.724,-0.03637
2.725,-0.022744
2.726,-0.007821
2.727,-0.020149
2.728,-0.025664
2.729,-0.037668
2.73,-0.044157
2.731,-0.046752
2.732,-0.053241
2.733,-0.056809
2.734,-0.043832
2.735,-0.022744
2.736,-0.020149
2.737,-0.024691
2.738,-0.024042
2.739,-0.024042
2.74,-0.02826
2.741,-0.03929
2.742,-0.043508
2.743,-0.043508
2.744,-0.040912
2.745,-0.041886
2.746,-0.047077
2.747,-0.046752
2.748,-0.037344
2.749,-0.019825
2.75,-0.003279
2.751,0.003859
2.752,-0.000683
2.753,0.003534
2.754,0.010672
2.755,0.021702
2.756,0.025596
2.757,0.034031
2.758,0.039222
2.759,0.038897
2.76,0.046684
2.761,0.055768
2.762,0.06842
2.763,0.081073
2.764,0.096321
2.765,0.095997
2.766,0.09113
2.767,0.115463
2.768,0.143039
2.769,0.170291
2.77,0.201761
2.771,0.229013
2.772,0.248479
2.773,0.261456
2.774,0.28741
2.775,0.305578
2.776,0.294223
2.777,0.297143
2.778,0.30201
2.779,0.286437
2.78,0.28222
2.781,0.262105
2.782,0.238422
2.783,0.210845
2.784,0.186837
2.785,0.173211
2.786,0.148554
2.787,0.127467
2.788,0.114165
2.789,0.104756
2.79,0.085615
2.791,0.057065
2.792,0.030787
2.793,0.026569
2.794,0.038897
2.795,0.054145
2.796,0.080749
2.797,0.094375
2.798,0.073611
2.799,0.054794
2.8,0.052523
2.801,0.047981
2.802,0.047981
2.803,0.049279
2.804,0.05155
2.805,0.06031
2.806,0.068096
2.807,0.072314
2.808,0.071989
2.809,0.072314
2.81,0.06031
2.811,0.064203
2.812,0.070367
2.813,0.068745
2.814,0.064852
2.815,0.059661
2.816,0.056741
2.817,0.059012
2.818,0.062256
2.819,0.064852
2.82,0.078478
2.821,0.090482
2.822,0.103783
2.823,0.107676
2.824,0.103134
2.825,0.097943
2.826,0.095348
2.827,0.074909
2.828,0.044413
2.829,0.02592
2.83,0.013267
2.831,0.015214
2.832,0.025271
2.833,0.045386
2.834,0.044088
2.835,0.036951
2.836,0.035004
2.837,0.03468
2.838,0.029489
2.839,0.030462
2.84,0.031435
2.841,0.030138
2.842,0.034355
2.843,0.047332
2.844,0.058039
2.845,0.056416
2.846,0.059012
2.847,0.070691
2.848,0.07426
2.849,0.067771
2.85,0.056416
2.851,0.026245
2.852,-0.048699
2.853,-0.161276
2.854,-0.323815
2.855,-0.505495
2.856,-0.682309
2.857,-0.864314
2.858,-1.024906
2.859,-1.124182
2.86,-1.164086
2.861,-1.108609
2.862,-0.940879
2.863,-0.699828
2.864,-0.399731
2.865,-0.045454
2.866,0.399988
2.867,0.891824
2.868,1.356083
2.869,1.788874
2.87,2.196035
2.871,2.548367
2.872,2.85755
2.873,3.078813
2.874,3.23454
2.875,3.295857
2.876,3.229998
2.877,3.029499
2.878,2.708312
2.879,2.324834
2.88,1.927081
2.881,1.55431
2.882,1.204899
2.883,0.887606
2.884,0.654016
2.885,0.491801
2.886,0.396094
2.887,0.36722
2.888,0.369167
2.889,0.375331
2.89,0.381171
2.891,0.375006
2.892,0.343861
2.893,0.302334
2.894,0.270865
2.895,0.245235
2.896,0.221227
2.897,0.198192
2.898,0.169642
2.899,0.144337
2.9,0.12552
2.901,0.107027
2.902,0.087886
2.903,0.077504
2.904,0.070043
2.905,0.059661
2.906,0.047981
2.907,0.038248
2.908,0.028516
2.909,0.017485
2.91,0.002561
2.911,-0.011389
2.912,-0.026313
2.913,-0.040588
2.914,-0.03929
2.915,-0.029882
2.916,-0.036046
2.917,-0.043508
2.918,-0.040588
2.919,-0.030531
2.92,-0.035397
2.921,-0.032477
2.922,-0.022096
2.923,-0.0195
2.924,0.004508
2.925,-0.007172
2.926,-0.038317
2.927,-0.056161
2.928,-0.068813
2.929,-0.062974
2.93,-0.052592
2.931,-0.038966
2.932,-0.043832
2.933,-0.050645
2.934,-0.053565
2.935,-0.055512
2.936,-0.063622
2.937,-0.056485
2.938,-0.03118
2.939,0.006779
2.94,0.021378
2.941,0.002886
2.942,-0.019825
2.943,-0.035722
2.944,-0.048374
2.945,-0.060703
2.946,-0.07076
2.947,-0.079844
2.948,-0.086333
2.949,-0.094119
2.95,-0.094443
2.951,-0.095417
2.952,-0.100607
2.953,-0.092821
2.954,-0.074653
2.955,-0.068165
2.956,-0.086333
2.957,-0.088928
2.958,-0.092821
2.959,-0.09347
2.96,-0.093794
2.961,-0.105149
2.962,-0.117478
2.963,-0.123966
2.964,-0.133699
2.965,-0.134997
2.966,-0.129482
2.967,-0.130455
2.968,-0.146028
2.969,-0.165818
2.97,-0.18431
2.971,-0.195665
2.972,-0.205723
2.973,-0.216429
2.974,-0.231353
2.975,-0.240761
2.976,-0.243032
2.977,-0.235895
2.978,-0.230379
2.979,-0.227784
2.98,-0.224864
2.981,-0.228108
2.982,-0.231677
2.983,-0.222917
2.984,-0.226162
2.985,-0.250818
2.986,-0.270933
2.987,-0.290074
2.988,-0.305971
2.989,-0.314731
2.99,-0.311487
2.991,-0.310838
2.992,-0.322517
2.993,-0.326086
2.994,-0.328357
2.995,-0.339388
2.996,-0.362746
2.997,-0.380266
2.998,-0.388052
2.999,-0.402976
3,-0.418873
3.001,-0.441907
3.002,-0.477919
3.003,-0.511335
3.004,-0.534694
3.005,-0.55416
3.006,-0.569732
3.007,-0.574923
3.008,-0.564866
3.009,-0.537289
3.01,-0.496411
3.011,-0.450018
3.012,-0.394865
3.013,-0.331277
3.014,-0.25828
3.015,-0.183661
3.016,-0.11326
3.017,-0.064271
3.018,-0.018851
3.019,0.023649
3.02,0.069718
3.021,0.107676
3.022,0.136875
3.023,0.166723
3.024,0.182944
3.025,0.192028
3.026,0.198517
3.027,0.206303
3.028,0.2222
3.029,0.227066
3.03,0.221227
3.031,0.230311
3.032,0.245235
3.033,0.250101
3.034,0.250425
3.035,0.251074
3.036,0.263403
3.037,0.27054
3.038,0.259509
3.039,0.24491
3.04,0.251074
3.041,0.283193
3.042,0.30201
3.043,0.282868
3.044,0.260158
3.045,0.251723
3.046,0.259834
3.047,0.238746
3.048,0.21928
3.049,0.217009
3.05,0.217982
3.051,0.223822
3.052,0.233555
3.053,0.234204
3.054,0.237448
3.055,0.245883
3.056,0.261456
3.057,0.276704
3.058,0.283193
3.059,0.272487
3.06,0.265674
3.061,0.265674
3.062,0.272811
3.063,0.263727
3.064,0.247506
3.065,0.261456
3.066,0.276055
3.067,0.278002
3.068,0.280922
3.069,0.276055
3.07,0.283517
3.071,0.300388
3.072,0.284815
3.073,0.255616
3.074,0.243937
3.075,0.243937
3.076,0.242639
3.077,0.245235
3.078,0.256265
3.079,0.26762
3.08,0.266647
3.081,0.258212
3.082,0.241341
3.083,0.228689
3.084,0.226418
3.085,0.230635
3.086,0.23388
3.087,0.242964
3.088,0.247181
3.089,0.239395
3.09,0.24199
3.091,0.249452
3.092,0.255616
3.093,0.265998
3.094,0.265349
3.095,0.264376
3.096,0.271838
3.097,0.279624
3.098,0.292601
3.099,0.300712
3.1,0.300388
3.101,0.300712
3.102,0.288708
3.103,0.278002
3.104,0.284815
3.105,0.289681
3.106,0.309472
3.107,0.340617
3.108,0.33056
3.109,0.298117
3.11,0.281571
3.111,0.283842
3.112,0.282868
3.113,0.286437
3.114,0.296494
3.115,0.304281
3.116,0.320502
3.117,0.328613
3.118,0.330235
3.119,0.342239
3.12,0.350999
3.121,0.344186
3.122,0.331857
3.123,0.3218
3.124,0.325693
3.125,0.324071
3.126,0.308823
3.127,0.29909
3.128,0.295846
3.129,0.29909
3.13,0.309472
3.131,0.305254
3.132,0.296494
3.133,0.300388
3.134,0.311743
3.135,0.314014
3.136,0.317907
3.137,0.326342
3.138,0.339968
3.139,0.358136
3.14,0.36722
3.141,0.363651
3.142,0.35035
3.143,0.339319
3.144,0.328289
3.145,0.320827
3.146,0.322124
3.147,0.319205
3.148,0.317907
3.149,0.323747
3.15,0.337373
3.151,0.349701
3.152,0.363327
3.153,0.371438
3.154,0.375655
3.155,0.366247
3.156,0.350025
3.157,0.348079
3.158,0.352945
3.159,0.354892
3.16,0.339968
3.161,0.324395
3.162,0.32764
3.163,0.339644
3.164,0.337697
3.165,0.338021
3.166,0.339968
3.167,0.33867
3.168,0.337048
3.169,0.338346
3.17,0.343212
3.171,0.339968
3.172,0.339319
3.173,0.344186
3.174,0.368842
3.175,0.390579
3.176,0.387335
3.177,0.380197
3.178,0.377602
3.179,0.378251
3.18,0.388633
3.181,0.383766
3.182,0.361056
3.183,0.354892
3.184,0.345159
3.185,0.345483
3.186,0.37598
3.187,0.411343
3.188,0.43535
3.189,0.453843
3.19,0.472011
3.191,0.476877
3.192,0.475904
3.193,0.469416
3.194,0.478824
3.195,0.502832
3.196,0.534626
3.197,0.561229
3.198,0.584588
3.199,0.601459
3.2,0.607298
3.201,0.596592
3.202,0.580371
3.203,0.579397
3.204,0.591077
3.205,0.598863
3.206,0.591726
3.207,0.575504
3.208,0.562851
3.209,0.541763
3.21,0.517756
3.211,0.491152
3.212,0.46682
3.213,0.464549
3.214,0.460332
3.215,0.443461
3.216,0.405827
3.217,0.375006
3.218,0.37306
3.219,0.378251
3.22,0.381495
3.221,0.383117
3.222,0.389281
3.223,0.386362
3.224,0.376304
3.225,0.371438
3.226,0.37014
3.227,0.366896
3.228,0.366896
3.229,0.376304
3.23,0.39577
3.231,0.409072
3.232,0.388633
3.233,0.372411
3.234,0.374682
3.235,0.370464
3.236,0.368193
3.237,0.360732
3.238,0.356838
3.239,0.352945
3.24,0.350025
3.241,0.355541
3.242,0.36138
3.243,0.368193
3.244,0.381495
3.245,0.388633
3.246,0.391552
3.247,0.381171
3.248,0.386686
3.249,0.405827
3.25,0.426266
3.251,0.416534
3.252,0.401934
3.253,0.395446
3.254,0.381171
3.255,0.37014
3.256,0.363976
3.257,0.358785
3.258,0.355216
3.259,0.355541
3.26,0.374358
3.261,0.399014
3.262,0.433404
3.263,0.451572
3.264,0.443786
3.265,0.424644
3.266,0.41264
3.267,0.407125
3.268,0.399339
3.269,0.396743
3.27,0.406476
3.271,0.421076
3.272,0.484339
3.273,0.549874
3.274,0.580046
3.275,0.570962
3.276,0.55539
3.277,0.550199
3.278,0.554416
3.279,0.554092
3.28,0.544034
3.281,0.535599
3.282,0.532031
3.283,0.530084
3.284,0.521324
3.285,0.46682
3.286,0.364625
3.287,0.233555
3.288,0.062581
3.289,-0.126237
3.29,-0.316677
3.291,-0.503873
3.292,-0.653435
3.293,-0.722538
3.294,-0.720592
3.295,-0.606068
3.296,-0.415628
3.297,-0.186257
3.298,0.07718
3.299,0.38993
3.3,0.787033
3.301,1.206197
3.302,1.633147
3.303,2.050041
3.304,2.417297
3.305,2.758923
3.306,3.051236
3.307,3.244922
3.308,3.375668
3.309,3.415573
3.31,3.33706
3.311,3.129099
3.312,2.831271
3.313,2.496134
3.314,2.140557
3.315,1.815477
3.316,1.524138
3.317,1.233124
3.318,1.010241
3.319,0.852567
3.32,0.746154
3.321,0.69749
3.322,0.681917
3.323,0.679971
3.324,0.680295
3.325,0.686784
3.326,0.677051
3.327,0.660505
3.328,0.645905
3.329,0.619951
3.33,0.58621
3.331,0.552794
3.332,0.520676
3.333,0.494721
3.334,0.467145
3.335,0.441515
3.336,0.414587
3.337,0.392201
3.338,0.381495
3.339,0.380522
3.34,0.37598
3.341,0.369491
3.342,0.371113
3.343,0.382144
3.344,0.378575
3.345,0.35619
3.346,0.343537
3.347,0.32764
3.348,0.313689
3.349,0.30493
3.35,0.301685
3.351,0.300388
3.352,0.302659
3.353,0.306552
3.354,0.310769
3.355,0.323747
3.356,0.319853
3.357,0.307525
3.358,0.297143
3.359,0.278651
3.36,0.263403
3.361,0.263403
3.362,0.269891
3.363,0.294223
3.364,0.316609
3.365,0.308174
3.366,0.286113
3.367,0.272811
3.368,0.280273
3.369,0.283517
3.37,0.256914
3.371,0.229337
3.372,0.214414
3.373,0.211494
3.374,0.200463
3.375,0.188135
3.376,0.198841
3.377,0.217982
3.378,0.229986
3.379,0.233555
3.38,0.234204
3.381,0.239395
3.382,0.244586
3.383,0.250101
3.384,0.243937
3.385,0.228364
3.386,0.21344
3.387,0.215387
3.388,0.211494
3.389,0.186513
3.39,0.172238
3.391,0.163478
3.392,0.148554
3.393,0.121951
3.394,0.099241
3.395,0.094699
3.396,0.093726
3.397,0.091779
3.398,0.090157
3.399,0.07718
3.4,0.06031
3.401,0.047981
3.402,0.047657
3.403,0.050252
3.404,0.050901
3.405,0.055119
3.406,0.061283
3.407,0.06842
3.408,0.080424
3.409,0.076531
3.41,0.069069
3.411,0.061607
3.412,0.043439
3.413,0.021054
3.414,0.009699
3.415,0.000615
3.416,-0.001332
3.417,0.000615
3.418,0.000615
3.419,0.00905
3.42,0.028516
3.421,0.02592
3.422,0.021378
3.423,0.022027
3.424,0.023325
3.425,0.014565
3.426,0.02008
3.427,0.021702
3.428,0.000939
3.429,-0.019825
3.43,-0.038641
3.431,-0.054863
3.432,-0.067191
3.433,-0.089901
3.434,-0.112936
3.435,-0.121371
3.436,-0.157058
3.437,-0.196314
3.438,-0.219998
3.439,-0.244654
3.44,-0.267689
3.441,-0.279693
3.442,-0.280341
3.443,-0.282288
3.444,-0.256658
3.445,-0.228757
3.446,-0.2041
3.447,-0.165493
3.448,-0.123318
3.449,-0.074978
3.45,-0.021447
3.451,0.044088
3.452,0.114814
3.453,0.187486
3.454,0.238746
3.455,0.267945
3.456,0.291304
3.457,0.311418
3.458,0.331533
3.459,0.357812
3.46,0.394797
3.461,0.425293
3.462,0.437297
3.463,0.441515
3.464,0.44119
3.465,0.449301
3.466,0.463576
3.467,0.457412
3.468,0.426915
3.469,0.397717
3.47,0.394472
3.471,0.399014
3.472,0.407774
3.473,0.415885
3.474,0.422049
3.475,0.437946
3.476,0.455141
3.477,0.474931
3.478,0.475904
3.479,0.448003
3.48,0.425942
3.481,0.418156
3.482,0.418156
3.483,0.410045
3.484,0.412316
3.485,0.422698
3.486,0.42432
3.487,0.407449
3.488,0.393823
3.489,0.395121
3.49,0.391877
3.491,0.386362
3.492,0.399339
3.493,0.412965
3.494,0.418156
3.495,0.415236
3.496,0.411343
3.497,0.409072
3.498,0.409396
3.499,0.425618
3.5,0.419778
3.501,0.402259
3.502,0.395121
3.503,0.384091
3.504,0.391228
3.505,0.40161
3.506,0.406152
3.507,0.416858
3.508,0.429186
3.509,0.443137
3.51,0.45579
3.511,0.458385
3.512,0.441515
3.513,0.433728
3.514,0.442488
3.515,0.449625
3.516,0.452221
3.517,0.458061
3.518,0.466171
3.519,0.46098
3.52,0.462603
3.521,0.462927
3.522,0.441839
3.523,0.4214
3.524,0.4214
3.525,0.42724
3.526,0.441839
3.527,0.44995
3.528,0.44995
3.529,0.457412
3.53,0.470713
3.531,0.472011
3.532,0.461305
3.533,0.454492
3.534,0.444759
3.535,0.43535
3.536,0.43016
3.537,0.449301
3.538,0.4785
3.539,0.479148
3.54,0.46974
3.541,0.465522
3.542,0.463251
3.543,0.448652
3.544,0.446381
3.545,0.449625
3.546,0.450923
3.547,0.458385
3.548,0.469416
3.549,0.4639
3.55,0.457736
3.551,0.456763
3.552,0.450274
3.553,0.437946
3.554,0.434702
3.555,0.441515
3.556,0.451248
3.557,0.46682
3.558,0.479148
3.559,0.492126
3.56,0.489206
3.561,0.459358
3.562,0.441839
3.563,0.439244
3.564,0.443461
3.565,0.455465
3.566,0.462603
3.567,0.47266
3.568,0.489206
3.569,0.488557
3.57,0.483366
3.571,0.483042
3.572,0.482717
3.573,0.476229
3.574,0.474931
3.575,0.470713
3.576,0.474282
3.577,0.479797
3.578,0.483691
3.579,0.488881
3.58,0.493748
3.581,0.505427
3.582,0.502832
3.583,0.493748
3.584,0.494072
3.585,0.50932
3.586,0.530733
3.587,0.528786
3.588,0.505752
3.589,0.482393
3.59,0.476553
3.591,0.484988
3.592,0.489206
3.593,0.502507
3.594,0.501859
3.595,0.496343
3.596,0.487908
3.597,0.488557
3.598,0.50932
3.599,0.521
3.6,0.515809
3.601,0.505103
3.602,0.50121
3.603,0.525218
3.604,0.550523
3.605,0.564149
3.606,0.575829
3.607,0.577451
3.608,0.574206
3.609,0.5781
3.61,0.576153
3.611,0.584264
3.612,0.586535
3.613,0.583939
3.614,0.590752
3.615,0.58621
3.616,0.571935
3.617,0.563176
3.618,0.561878
3.619,0.569016
3.62,0.571287
3.621,0.564474
3.622,0.571287
3.623,0.580371
3.624,0.574206
3.625,0.573233
3.626,0.576153
3.627,0.576477
3.628,0.574206
3.629,0.577451
3.63,0.570313
3.631,0.557012
3.632,0.559283
3.633,0.563176
3.634,0.562527
3.635,0.565447
3.636,0.581993
3.637,0.597565
3.638,0.588481
3.639,0.580046
3.64,0.572909
3.641,0.553443
3.642,0.531382
3.643,0.514187
3.644,0.512565
3.645,0.523595
3.646,0.544683
3.647,0.564149
3.648,0.568042
3.649,0.558634
3.65,0.545332
3.651,0.543386
3.652,0.550199
3.653,0.550523
3.654,0.544359
3.655,0.534302
3.656,0.534626
3.657,0.547928
3.658,0.564798
3.659,0.573882
3.66,0.572909
3.661,0.569016
3.662,0.56934
3.663,0.570313
3.664,0.576802
3.665,0.579073
3.666,0.561229
3.667,0.552145
3.668,0.565447
3.669,0.576153
3.67,0.552794
3.671,0.547603
3.672,0.55539
3.673,0.547603
3.674,0.54371
3.675,0.537221
3.676,0.535275
3.677,0.533328
3.678,0.527489
3.679,0.52392
3.68,0.521
3.681,0.509969
3.682,0.502832
3.683,0.506401
3.684,0.511267
3.685,0.509645
3.686,0.508672
3.687,0.507374
3.688,0.508672
3.689,0.526191
3.69,0.528137
3.691,0.520027
3.692,0.524569
3.693,0.535599
3.694,0.544359
3.695,0.550199
3.696,0.561229
3.697,0.570638
3.698,0.585237
3.699,0.599512
3.7,0.6206
3.701,0.640715
3.702,0.656287
3.703,0.665047
3.704,0.662776
3.705,0.664722
3.706,0.670238
3.707,0.672184
3.708,0.672833
3.709,0.679971
3.71,0.676077
3.711,0.638119
3.712,0.596917
3.713,0.577775
3.714,0.572584
3.715,0.548901
3.716,0.517107
3.717,0.510943
3.718,0.500561
3.719,0.465847
3.72,0.450923
3.721,0.45579
3.722,0.460656
3.723,0.464874
3.724,0.463576
3.725,0.467793
3.726,0.47266
3.727,0.473633
3.728,0.472984
3.729,0.478175
3.73,0.475255
3.731,0.467469
3.732,0.45579
3.733,0.440866
3.734,0.428862
3.735,0.428537
3.736,0.426915
3.737,0.422698
3.738,0.435026
3.739,0.449301
3.74,0.451572
3.741,0.428213
3.742,0.412316
3.743,0.412965
3.744,0.429835
3.745,0.439892
3.746,0.438919
3.747,0.435999
3.748,0.434053
3.749,0.433079
3.75,0.422049
3.751,0.424969
3.752,0.439892
3.753,0.439892
3.754,0.432431
3.755,0.44119
3.756,0.454167
3.757,0.456438
3.758,0.445083
3.759,0.446057
3.76,0.439568
3.761,0.428213
3.762,0.420102
3.763,0.411018
3.764,0.406152
3.765,0.406476
3.766,0.401285
3.767,0.382144
3.768,0.378575
3.769,0.386037
3.77,0.38993
3.771,0.389606
3.772,0.387335
3.773,0.39577
3.774,0.403556
3.775,0.407449
3.776,0.41848
3.777,0.426591
3.778,0.426266
3.779,0.435999
3.78,0.454167
3.781,0.459358
3.782,0.461629
3.783,0.468442
3.784,0.465847
3.785,0.451248
3.786,0.432431
3.787,0.41848
3.788,0.412965
3.789,0.392526
3.79,0.345483
3.791,0.288384
3.792,0.221876
3.793,0.107676
3.794,-0.05389
3.795,-0.227459
3.796,-0.410113
3.797,-0.578168
3.798,-0.708912
3.799,-0.769905
3.8,-0.777691
3.801,-0.685878
3.802,-0.517824
3.803,-0.284235
3.804,0.010023
3.805,0.384091
3.806,0.831804
3.807,1.287629
3.808,1.736316
3.809,2.17884
3.81,2.563615
3.811,2.897131
3.812,3.157974
3.813,3.332194
3.814,3.424332
3.815,3.399027
3.816,3.250437
3.817,2.989594
3.818,2.642452
3.819,2.275845
3.82,1.910211
3.821,1.548146
3.822,1.199059
3.823,0.941786
3.824,0.75459
3.825,0.622547
3.826,0.561229
3.827,0.547603
3.828,0.562527
3.829,0.585562
3.83,0.586535
3.831,0.568691
3.832,0.556687
3.833,0.529435
3.834,0.488233
3.835,0.448976
3.836,0.417182
3.837,0.373709
3.838,0.333804
3.839,0.296494
3.84,0.282868
3.841,0.278651
3.842,0.264051
3.843,0.242639
3.844,0.22512
3.845,0.212467
3.846,0.201761
3.847,0.197543
3.848,0.192028
3.849,0.186513
3.85,0.180997
3.851,0.172562
3.852,0.167696
3.853,0.163154
3.854,0.164127
3.855,0.163803
3.856,0.158287
3.857,0.153097
3.858,0.156341
3.859,0.159585
3.86,0.159261
3.861,0.157963
3.862,0.159585
3.863,0.163154
3.864,0.168994
3.865,0.172887
3.866,0.1797
3.867,0.190081
3.868,0.191055
3.869,0.19073
3.87,0.189757
3.871,0.18781
3.872,0.177104
3.873,0.174184
3.874,0.166398
3.875,0.145635
3.876,0.133306
3.877,0.119356
3.878,0.122925
3.879,0.129738
3.88,0.116436
3.881,0.100863
3.882,0.079127
3.883,0.066798
3.884,0.066798
3.885,0.068096
3.886,0.047657
3.887,0.027542
3.888,0.017809
3.889,0.013592
3.89,-0.001332
3.891,-0.025664
3.892,-0.030531
3.893,-0.029233
3.894,-0.038966
3.895,-0.053565
3.896,-0.05389
3.897,-0.049996
3.898,-0.050321
3.899,-0.043508
3.9,-0.043183
3.901,-0.040264
3.902,-0.037344
3.903,-0.044157
3.904,-0.068813
3.905,-0.081791
3.906,-0.059729
3.907,-0.038966
3.908,-0.037344
3.909,-0.046428
3.91,-0.061027
3.911,-0.076924
3.912,-0.083737
3.913,-0.09931
3.914,-0.114882
3.915,-0.122669
3.916,-0.126562
3.917,-0.139539
3.918,-0.151218
3.919,-0.158031
3.92,-0.163871
3.921,-0.166791
3.922,-0.163547
3.923,-0.164845
3.924,-0.171009
3.925,-0.175551
3.926,-0.182688
3.927,-0.192421
3.928,-0.205074
3.929,-0.207994
3.93,-0.211238
3.931,-0.219024
3.932,-0.231677
3.933,-0.242708
3.934,-0.249196
3.935,-0.256658
3.936,-0.256982
3.937,-0.253089
3.938,-0.271906
3.939,-0.299158
3.94,-0.3183
3.941,-0.342632
3.942,-0.372804
3.943,-0.388376
3.944,-0.413357
3.945,-0.453587
3.946,-0.477594
3.947,-0.504198
3.948,-0.527557
3.949,-0.51685
3.95,-0.481488
3.951,-0.453911
3.952,-0.438014
3.953,-0.441907
3.954,-0.444827
3.955,-0.417575
3.956,-0.347174
3.957,-0.268338
3.958,-0.188203
3.959,-0.122669
3.96,-0.085359
3.961,-0.045454
3.962,0.005157
3.963,0.04863
3.964,0.082695
3.965,0.108001
3.966,0.138173
3.967,0.167047
3.968,0.194948
3.969,0.214089
3.97,0.217982
3.971,0.227715
3.972,0.236151
3.973,0.235502
3.974,0.236799
3.975,0.235826
3.976,0.231933
3.977,0.237448
3.978,0.247181
3.979,0.254643
3.98,0.254967
3.981,0.255616
3.982,0.251723
3.983,0.259509
3.984,0.271838
3.985,0.281571
3.986,0.282868
3.987,0.273784
3.988,0.28222
3.989,0.280273
3.99,0.2647
3.991,0.257563
3.992,0.257563
3.993,0.254967
3.994,0.262429
3.995,0.266647
3.996,0.251074
3.997,0.241017
3.998,0.245235
3.999,0.257887
4,0.268918
4.001,0.28222
4.002,0.301685
4.003,0.306876
4.004,0.284166
4.005,0.278326
4.006,0.305254
4.007,0.331533
4.008,0.326342
4.009,0.328937
4.01,0.325044
4.011,0.317907
4.012,0.305254
4.013,0.297792
4.014,0.302659
4.015,0.28741
4.016,0.266971
4.017,0.254643
4.018,0.252048
4.019,0.250101
4.02,0.250425
4.021,0.262105
4.022,0.271513
4.023,0.281246
4.024,0.289357
4.025,0.281895
4.026,0.272487
4.027,0.262754
4.028,0.257238
4.029,0.257238
4.03,0.260483
4.031,0.262754
4.032,0.269567
4.033,0.278326
4.034,0.276704
4.035,0.276704
4.036,0.274433
4.037,0.271513
4.038,0.271513
4.039,0.271189
4.04,0.271838
4.041,0.275731
4.042,0.283193
4.043,0.290006
4.044,0.29325
4.045,0.289357
4.046,0.278975
4.047,0.263403
4.048,0.257238
4.049,0.252048
4.05,0.249452
4.051,0.248803
4.052,0.235502
4.053,0.24783
4.054,0.269242
4.055,0.255941
4.056,0.219605
4.057,0.206627
4.058,0.208898
4.059,0.207601
4.06,0.201761
4.061,0.205979
4.062,0.217334
4.063,0.226742
4.064,0.225769
4.065,0.227066
4.066,0.231284
4.067,0.234853
4.068,0.238746
4.069,0.253021
4.07,0.25075
4.071,0.232906
4.072,0.220578
4.073,0.234204
4.074,0.249777
4.075,0.252372
4.076,0.238422
4.077,0.214089
4.078,0.193326
4.079,0.185539
4.08,0.187486
4.081,0.183917
4.082,0.177753
4.083,0.177753
4.084,0.179051
4.085,0.176455
4.086,0.176131
4.087,0.180349
4.088,0.189757
4.089,0.192353
4.09,0.19073
4.091,0.196895
4.092,0.214414
4.093,0.217334
4.094,0.218307
4.095,0.219929
4.096,0.21636
4.097,0.200139
4.098,0.189433
4.099,0.190406
4.1,0.18781
4.101,0.183593
4.102,0.184242
4.103,0.189757
4.104,0.190081
4.105,0.188784
4.106,0.187162
4.107,0.204356
4.108,0.217334
4.109,0.223822
4.11,0.235177
4.111,0.234204
4.112,0.222849
4.113,0.222524
4.114,0.231609
4.115,0.232582
4.116,0.235502
4.117,0.243937
4.118,0.234204
4.119,0.219929
4.12,0.212143
4.121,0.208898
4.122,0.203383
4.123,0.208574
4.124,0.225769
4.125,0.240044
4.126,0.247181
4.127,0.255292
4.128,0.252372
4.129,0.247181
4.13,0.254967
4.131,0.28222
4.132,0.302659
4.133,0.30785
4.134,0.308498
4.135,0.318556
4.136,0.319529
4.137,0.319205
4.138,0.328289
4.139,0.329586
4.14,0.333479
4.141,0.342888
4.142,0.346132
4.143,0.334128
4.144,0.329586
4.145,0.340941
4.146,0.369816
4.147,0.384415
4.148,0.386037
4.149,0.404854
4.15,0.423022
4.151,0.438919
4.152,0.44703
4.153,0.450274
4.154,0.442812
4.155,0.431457
4.156,0.424969
4.157,0.418156
4.158,0.415885
4.159,0.404205
4.16,0.389606
4.161,0.3789
4.162,0.350999
4.163,0.318231
4.164,0.277353
4.165,0.234528
4.166,0.202734
4.167,0.197219
4.168,0.198841
4.169,0.201112
4.17,0.206952
4.171,0.188135
4.172,0.173211
4.173,0.171913
4.174,0.178726
4.175,0.195272
4.176,0.207276
4.177,0.211494
4.178,0.216036
4.179,0.22804
4.18,0.231609
4.181,0.225444
4.182,0.227391
4.183,0.24199
4.184,0.251399
4.185,0.262105
4.186,0.277353
4.187,0.284815
4.188,0.28741
4.189,0.281895
4.19,0.27638
4.191,0.271838
4.192,0.268593
4.193,0.264376
4.194,0.26178
4.195,0.266971
4.196,0.325369
4.197,0.342563
4.198,0.355216
4.199,0.355865
4.2,0.331208
4.201,0.313689
4.202,0.325693
4.203,0.3218
4.204,0.303956
4.205,0.293899
4.206,0.300063
4.207,0.306552
4.208,0.320178
4.209,0.340617
4.21,0.342563
4.211,0.342563
4.212,0.353919
4.213,0.353919
4.214,0.337048
4.215,0.338346
4.216,0.321151
4.217,0.276704
4.218,0.265998
4.219,0.292926
4.22,0.298117
4.221,0.286113
4.222,0.283842
4.223,0.298441
4.224,0.303956
4.225,0.295197
4.226,0.281895
4.227,0.286762
4.228,0.289033
4.229,0.29325
4.23,0.309472
4.231,0.329586
4.232,0.337373
4.233,0.339968
4.234,0.341915
4.235,0.343212
4.236,0.345808
4.237,0.342888
4.238,0.332506
4.239,0.317582
4.24,0.279949
4.241,0.21636
4.242,0.134604
4.243,0.00905
4.244,-0.151867
4.245,-0.333548
4.246,-0.515877
4.247,-0.677767
4.248,-0.784829
4.249,-0.823436
4.25,-0.79813
4.251,-0.678416
4.252,-0.491545
4.253,-0.24433
4.254,0.076531
4.255,0.478824
4.256,0.939515
4.257,1.405721
4.258,1.861871
4.259,2.292391
4.26,2.657052
4.261,2.969803
4.262,3.20015
4.263,3.365935
4.264,3.429523
4.265,3.379236
4.266,3.20015
4.267,2.899726
4.268,2.535714
4.269,2.149317
4.27,1.77687
4.271,1.431027
4.272,1.139039
4.273,0.904476
4.274,0.726364
4.275,0.618653
4.276,0.569016
4.277,0.544034
4.278,0.532355
4.279,0.539168
4.28,0.550848
4.281,0.55247
4.282,0.524244
4.283,0.496343
4.284,0.46974
4.285,0.442163
4.286,0.403881
4.287,0.380846
4.288,0.374033
4.289,0.353594
4.29,0.311743
4.291,0.288059
4.292,0.278326
4.293,0.269242
4.294,0.267945
4.295,0.27346
4.296,0.263403
4.297,0.229013
4.298,0.200463
4.299,0.188135
4.3,0.175807
4.301,0.178078
4.302,0.19073
4.303,0.200139
4.304,0.19949
4.305,0.188459
4.306,0.176131
4.307,0.169318
4.308,0.158287
4.309,0.15407
4.31,0.153745
4.311,0.147257
4.312,0.135253
4.313,0.133631
4.314,0.144337
4.315,0.141417
4.316,0.136551
4.317,0.135902
4.318,0.14239
4.319,0.144661
4.32,0.142715
4.321,0.14531
4.322,0.154719
4.323,0.166723
4.324,0.161532
4.325,0.140444
4.326,0.130062
4.327,0.125844
4.328,0.131684
4.329,0.152123
4.33,0.165425
4.331,0.15991
4.332,0.134604
4.333,0.110272
4.334,0.09989
4.335,0.09405
4.336,0.089508
4.337,0.085615
4.338,0.074909
4.339,0.066149
4.34,0.068096
4.341,0.076531
4.342,0.085291
4.343,0.081722
4.344,0.061283
4.345,0.029164
4.346,0.014889
4.347,0.00613
4.348,-0.003279
4.349,-0.015282
4.35,-0.021447
4.351,-0.01074
4.352,-0.01074
4.353,-0.019825
4.354,-0.026962
4.355,-0.04221
4.356,-0.055836
4.357,-0.057134
4.358,-0.053241
4.359,-0.053241
4.36,-0.055512
4.361,-0.05908
4.362,-0.039615
4.363,-0.028909
4.364,-0.037019
4.365,-0.063298
4.366,-0.075302
4.367,-0.090226
4.368,-0.11034
4.369,-0.129482
4.37,-0.129806
4.371,-0.123966
4.372,-0.129157
4.373,-0.142134
4.374,-0.158031
4.375,-0.171982
4.376,-0.172955
4.377,-0.170684
4.378,-0.166142
4.379,-0.165493
4.38,-0.166467
4.381,-0.183337
4.382,-0.201829
4.383,-0.206047
4.384,-0.211238
4.385,-0.219349
4.386,-0.228757
4.387,-0.240437
4.388,-0.257307
4.389,-0.284559
4.39,-0.322517
4.391,-0.358853
4.392,-0.390647
4.393,-0.420819
4.394,-0.450991
4.395,-0.473701
4.396,-0.494789
4.397,-0.496736
4.398,-0.491869
4.399,-0.482136
4.4,-0.464293
4.401,-0.432174
4.402,-0.39227
4.403,-0.353014
4.404,-0.304349
4.405,-0.251143
4.406,-0.172955
4.407,-0.102554
4.408,-0.040588
4.409,0.014241
4.41,0.057065
4.411,0.088535
4.412,0.1226
4.413,0.150501
4.414,0.171265
4.415,0.189433
4.416,0.203059
4.417,0.223498
4.418,0.246857
4.419,0.264376
4.42,0.263078
4.421,0.266647
4.422,0.2793
4.423,0.277353
4.424,0.303632
4.425,0.329262
4.426,0.32472
4.427,0.309472
4.428,0.318231
4.429,0.337373
4.43,0.360732
4.431,0.387335
4.432,0.389606
4.433,0.355865
4.434,0.325693
4.435,0.308823
4.436,0.303956
4.437,0.309147
4.438,0.303632
4.439,0.304605
4.44,0.313689
4.441,0.319205
4.442,0.319853
4.443,0.314338
4.444,0.301036
4.445,0.289681
4.446,0.290979
4.447,0.301685
4.448,0.306227
4.449,0.300712
4.45,0.303632
4.451,0.300712
4.452,0.286762
4.453,0.287086
4.454,0.283517
4.455,0.274433
4.456,0.273136
4.457,0.267945
4.458,0.261456
4.459,0.253021
4.46,0.255292
4.461,0.265674
4.462,0.271838
4.463,0.261132
4.464,0.251074
4.465,0.254967
4.466,0.265998
4.467,0.269567
4.468,0.268593
4.469,0.271189
4.47,0.266647
4.471,0.268269
4.472,0.2793
4.473,0.27346
4.474,0.266322
4.475,0.258861
4.476,0.253021
4.477,0.250425
4.478,0.259509
4.479,0.268918
4.48,0.28222
4.481,0.282868
4.482,0.278002
4.483,0.285788
4.484,0.284491
4.485,0.274433
4.486,0.260807
4.487,0.243612
4.488,0.231284
4.489,0.21928
4.49,0.216685
4.491,0.223822
4.492,0.228364
4.493,0.227391
4.494,0.235826
4.495,0.243288
4.496,0.241341
4.497,0.24491
4.498,0.261456
4.499,0.27638
4.5,0.267296
4.501,0.257563
4.502,0.244586
4.503,0.222524
4.504,0.216036
4.505,0.230635
4.506,0.250425
4.507,0.247181
4.508,0.232906
4.509,0.221227
4.51,0.211494
4.511,0.206627
4.512,0.205005
4.513,0.215711
4.514,0.232582
4.515,0.240693
4.516,0.244586
4.517,0.244261
4.518,0.23907
4.519,0.246532
4.52,0.253021
4.521,0.269242
4.522,0.285464
4.523,0.293899
4.524,0.29033
4.525,0.298441
4.526,0.299414
4.527,0.303307
4.528,0.316609
4.529,0.313365
4.53,0.295846
4.531,0.303956
4.532,0.325693
4.533,0.347754
4.534,0.345808
4.535,0.326991
4.536,0.314663
4.537,0.307525
4.538,0.308498
4.539,0.310121
4.54,0.308823
4.541,0.301036
4.542,0.295846
4.543,0.302659
4.544,0.317907
4.545,0.339644
4.546,0.351323
4.547,0.355541
4.548,0.36722
4.549,0.377602
4.55,0.385713
4.551,0.406476
4.552,0.429511
4.553,0.431133
4.554,0.42724
4.555,0.417182
4.556,0.399014
4.557,0.386037
4.558,0.392526
4.559,0.379224
4.56,0.362678
4.561,0.355216
4.562,0.354243
4.563,0.358785
4.564,0.368193
4.565,0.379873
4.566,0.386686
4.567,0.394797
4.568,0.393175
4.569,0.392201
4.57,0.398365
4.571,0.408747
4.572,0.419129
4.573,0.421724
4.574,0.419778
4.575,0.424969
4.576,0.432106
4.577,0.429511
4.578,0.419453
4.579,0.411991
4.58,0.416534
4.581,0.409396
4.582,0.406476
4.583,0.411667
4.584,0.418156
4.585,0.423995
4.586,0.422373
4.587,0.423671
4.588,0.417831
4.589,0.406801
4.59,0.403232
4.591,0.400636
4.592,0.402259
4.593,0.405827
4.594,0.402907
4.595,0.394797
4.596,0.385388
4.597,0.372735
4.598,0.365598
4.599,0.362029
4.6,0.365598
4.601,0.384415
4.602,0.383442
4.603,0.370464
4.604,0.370789
4.605,0.370464
4.606,0.378251
4.607,0.387335
4.608,0.39577
4.609,0.386686
4.61,0.384415
4.611,0.390579
4.612,0.383442
4.613,0.368842
4.614,0.375006
4.615,0.377277
4.616,0.372087
4.617,0.36722
4.618,0.357163
4.619,0.351323
4.62,0.345159
4.621,0.322124
4.622,0.314014
4.623,0.320827
4.624,0.324395
4.625,0.319853
4.626,0.326991
4.627,0.324395
4.628,0.305254
4.629,0.296494
4.63,0.303956
4.631,0.304605
4.632,0.291628
4.633,0.284491
4.634,0.281246
4.635,0.274109
4.636,0.278326
4.637,0.298765
4.638,0.309472
4.639,0.31304
4.64,0.302983
4.641,0.277353
4.642,0.265674
4.643,0.271513
4.644,0.281246
4.645,0.301685
4.646,0.328937
4.647,0.326991
4.648,0.319205
4.649,0.312716
4.65,0.329911
4.651,0.342888
4.652,0.358461
4.653,0.385713
4.654,0.409396
4.655,0.413938
4.656,0.405827
4.657,0.397068
4.658,0.380197
4.659,0.370789
4.66,0.369167
4.661,0.378251
4.662,0.39285
4.663,0.411343
4.664,0.418156
4.665,0.411343
4.666,0.3789
4.667,0.331857
4.668,0.288708
4.669,0.262105
4.67,0.248154
4.671,0.226742
4.672,0.201437
4.673,0.184242
4.674,0.166398
4.675,0.152448
4.676,0.149852
4.677,0.161532
4.678,0.162181
4.679,0.150825
4.68,0.145959
4.681,0.154394
4.682,0.151474
4.683,0.141741
4.684,0.143039
4.685,0.148554
4.686,0.140768
4.687,0.13428
4.688,0.138822
4.689,0.140119
4.69,0.136875
4.691,0.134928
4.692,0.130062
4.693,0.110596
4.694,0.095997
4.695,0.087562
4.696,0.090157
4.697,0.095348
4.698,0.095348
4.699,0.101837
4.7,0.097619
4.701,0.097943
4.702,0.112867
4.703,0.125844
4.704,0.112867
4.705,0.101512
4.706,0.100214
4.707,0.098268
4.708,0.105081
4.709,0.112543
4.71,0.104756
4.711,0.100539
4.712,0.100539
4.713,0.105081
4.714,0.123573
4.715,0.134928
4.716,0.14531
4.717,0.162829
4.718,0.177429
4.719,0.177429
4.72,0.167047
4.721,0.165749
4.722,0.17094
4.723,0.167696
4.724,0.172238
4.725,0.178726
4.726,0.184566
4.727,0.195272
4.728,0.211169
4.729,0.223173
4.73,0.229662
4.731,0.220253
4.732,0.207276
4.733,0.193975
4.734,0.197219
4.735,0.210196
4.736,0.223498
4.737,0.224147
4.738,0.236799
4.739,0.242964
4.74,0.244586
4.741,0.234853
4.742,0.23096
4.743,0.227715
4.744,0.229986
4.745,0.25075
4.746,0.263078
4.747,0.267296
4.748,0.263727
4.749,0.260158
4.75,0.253994
4.751,0.19949
4.752,0.12844
4.753,0.024947
4.754,-0.128184
4.755,-0.331601
4.756,-0.551564
4.757,-0.760497
4.758,-0.917845
4.759,-1.00025
4.76,-1.007063
4.761,-0.9292
4.762,-0.763092
4.763,-0.55416
4.764,-0.28391
4.765,0.050577
4.766,0.468767
4.767,0.900583
4.768,1.329805
4.769,1.788874
4.77,2.202199
4.771,2.540256
4.772,2.838733
4.773,3.047343
4.774,3.188795
4.775,3.256601
4.776,3.250112
4.777,3.149863
4.778,2.932169
4.779,2.625257
4.78,2.282333
4.781,1.93065
4.782,1.592918
4.783,1.276922
4.784,0.992072
4.785,0.784113
4.786,0.641039
4.787,0.548252
4.788,0.496343
4.789,0.474282
4.79,0.466496
4.791,0.466496
4.792,0.473958
4.793,0.479473
4.794,0.471038
4.795,0.434053
4.796,0.382793
4.797,0.33867
4.798,0.31888
4.799,0.288059
4.8,0.249128
4.801,0.222849
4.802,0.210845
4.803,0.198192
4.804,0.182295
4.805,0.163478
4.806,0.152772
4.807,0.143364
4.808,0.136875
4.809,0.120654
4.81,0.103783
4.811,0.100539
4.812,0.092753
4.813,0.093077
4.814,0.115138
4.815,0.115463
4.816,0.091779
4.817,0.073287
4.818,0.064203
4.819,0.057065
4.82,0.061932
4.821,0.066798
4.822,0.066798
4.823,0.064203
4.824,0.068096
4.825,0.071016
4.826,0.073287
4.827,0.072638
4.828,0.073611
4.829,0.074909
4.83,0.075882
4.831,0.070691
4.832,0.049279
4.833,0.032409
4.834,0.031435
4.835,0.03176
4.836,0.036302
4.837,0.032733
4.838,0.024298
4.839,0.018134
4.84,0.012943
4.841,-0.001332
4.842,-0.004901
4.843,-0.00555
4.844,-0.017553
4.845,-0.031504
4.846,-0.042535
4.847,-0.058756
4.848,-0.069138
4.849,-0.074004
4.85,-0.079195
4.851,-0.089901
4.852,-0.105474
4.853,-0.121371
4.854,-0.141486
4.855,-0.166142
4.856,-0.177497
4.857,-0.174577
4.858,-0.159005
4.859,-0.149272
4.86,-0.152841
4.861,-0.160951
4.862,-0.175226
4.863,-0.190474
4.864,-0.205074
4.865,-0.210589
4.866,-0.203127
4.867,-0.211887
4.868,-0.224215
4.869,-0.23265
4.87,-0.232975
4.871,-0.242383
4.872,-0.243681
4.873,-0.243032
4.874,-0.260227
4.875,-0.265418
4.876,-0.282288
4.877,-0.313758
4.878,-0.339712
4.879,-0.340685
4.88,-0.322517
4.881,-0.321868
4.882,-0.330952
4.883,-0.342956
4.884,-0.358204
4.885,-0.377346
4.886,-0.395189
4.887,-0.396812
4.888,-0.38351
4.889,-0.373777
4.89,-0.3608
4.891,-0.357556
4.892,-0.36664
4.893,-0.373128
4.894,-0.385132
4.895,-0.395838
4.896,-0.424388
4.897,-0.445152
4.898,-0.448071
4.899,-0.455858
4.9,-0.47727
4.901,-0.495762
4.902,-0.524637
4.903,-0.561946
4.904,-0.593091
4.905,-0.62229
4.906,-0.647595
4.907,-0.674523
4.908,-0.694313
4.909,-0.709561
4.91,-0.720267
4.911,-0.722214
4.912,-0.709886
4.913,-0.682958
4.914,-0.638187
4.915,-0.591145
4.916,-0.544102
4.917,-0.482136
4.918,-0.411086
4.919,-0.333223
4.92,-0.261849
4.921,-0.202803
4.922,-0.155112
4.923,-0.112287
4.924,-0.075951
4.925,-0.048699
4.926,-0.005874
4.927,0.026569
4.928,0.043115
4.929,0.05155
4.93,0.058363
4.931,0.061607
4.932,0.066149
4.933,0.069394
4.934,0.071016
4.935,0.088535
4.936,0.105405
4.937,0.091455
4.938,0.074909
4.939,0.074585
4.94,0.0801
4.941,0.07718
4.942,0.056416
4.943,0.039871
4.944,0.047332
4.945,0.064203
4.946,0.067123
4.947,0.06031
4.948,0.061607
4.949,0.082695
4.95,0.085615
4.951,0.07134
4.952,0.052848
4.953,0.044737
4.954,0.050901
4.955,0.052523
4.956,0.063229
4.957,0.066798
4.958,0.075882
4.959,0.075233
4.96,0.063878
4.961,0.065176
4.962,0.070691
4.963,0.08302
4.964,0.080749
4.965,0.077504
4.966,0.068096
4.967,0.064852
4.968,0.066798
4.969,0.071016
4.97,0.076856
4.971,0.084317
4.972,0.084317
4.973,0.079775
4.974,0.07718
4.975,0.076856
4.976,0.072314
4.977,0.062905
4.978,0.066149
4.979,0.074909
4.98,0.082371
4.981,0.074909
4.982,0.067771
4.983,0.069718
4.984,0.073611
4.985,0.077504
4.986,0.078153
4.987,0.070043
4.988,0.064852
4.989,0.066798
4.99,0.061607
4.991,0.059336
4.992,0.05739
4.993,0.054794
4.994,0.049928
4.995,0.046035
4.996,0.055443
4.997,0.064527
4.998,0.063878
4.999,0.057065
5,0.05155
5.001,0.058039
5.002,0.051226
5.003,0.043439
5.004,0.044088
5.005,0.037924
5.006,0.031111
5.007,0.028516
5.008,0.031435
5.009,0.03468
5.01,0.039546
5.011,0.053821
5.012,0.060634
5.013,0.056416
5.014,0.049603
5.015,0.057714
5.016,0.067447
5.017,0.069718
5.018,0.073936
5.019,0.059661
5.02,0.04863
5.021,0.055768
5.022,0.061607
5.023,0.062581
5.024,0.055119
5.025,0.040195
5.026,0.040844
5.027,0.040519
5.028,0.039222
5.029,0.044088
5.03,0.052848
5.031,0.066474
5.032,0.063229
5.033,0.07426
5.034,0.078153
5.035,0.075558
5.036,0.079127
5.037,0.084966
5.038,0.083669
5.039,0.086264
5.04,0.094375
5.041,0.099241
5.042,0.099241
5.043,0.100539
5.044,0.11157
5.045,0.13947
5.046,0.169318
5.047,0.171913
5.048,0.173536
5.049,0.170616
5.05,0.150177
5.051,0.121951
5.052,0.095997
5.053,0.090157
5.054,0.109947
5.055,0.1226
5.056,0.132333
5.057,0.127791
5.058,0.128115
5.059,0.13947
5.06,0.140444
5.061,0.140119
5.062,0.149203
5.063,0.153421
5.064,0.155043
5.065,0.168994
5.066,0.175807
5.067,0.168669
5.068,0.155368
5.069,0.148554
5.07,0.141417
5.071,0.12552
5.072,0.114489
5.073,0.106379
5.074,0.105081
5.075,0.101837
5.076,0.104756
5.077,0.115138
5.078,0.118058
5.079,0.112867
5.08,0.112218
5.081,0.116112
5.082,0.115138
5.083,0.110272
5.084,0.112867
5.085,0.120978
5.086,0.120654
5.087,0.127142
5.088,0.136226
5.089,0.132333
5.09,0.114814
5.091,0.099566
5.092,0.09405
5.093,0.099241
5.094,0.104756
5.095,0.110272
5.096,0.110272
5.097,0.105405
5.098,0.10865
5.099,0.119031
5.1,0.120329
5.101,0.113192
5.102,0.104432
5.103,0.097619
5.104,0.091779
5.105,0.089508
5.106,0.090157
5.107,0.108974
5.108,0.114814
5.109,0.115463
5.11,0.122925
5.111,0.12844
5.112,0.125196
5.113,0.114814
5.114,0.095348
5.115,0.081073
5.116,0.077504
5.117,0.079775
5.118,0.082695
5.119,0.073611
5.12,0.068745
5.121,0.074585
5.122,0.075882
5.123,0.073287
5.124,0.068096
5.125,0.070691
5.126,0.076207
5.127,0.070043
5.128,0.071989
5.129,0.072638
5.13,0.073611
5.131,0.057714
5.132,0.044413
5.133,0.046359
5.134,0.053821
5.135,0.063554
5.136,0.056092
5.137,0.051226
5.138,0.067123
5.139,0.07426
5.14,0.063878
5.141,0.059985
5.142,0.066798
5.143,0.071665
5.144,0.079127
5.145,0.08302
5.146,0.087562
5.147,0.090482
5.148,0.092104
5.149,0.085615
5.15,0.072638
5.151,0.080424
5.152,0.086588
5.153,0.091779
5.154,0.103459
5.155,0.108001
5.156,0.103134
5.157,0.104432
5.158,0.101837
5.159,0.102485
5.16,0.103783
5.161,0.108325
5.162,0.111245
5.163,0.114165
5.164,0.110596
5.165,0.114165
5.166,0.123898
5.167,0.139795
5.168,0.158287
5.169,0.163803
5.17,0.169967
5.171,0.182944
5.172,0.190081
5.173,0.1797
5.174,0.167696
5.175,0.172562
5.176,0.203383
5.177,0.229013
5.178,0.245559
5.179,0.257238
5.18,0.266971
5.181,0.272487
5.182,0.261456
5.183,0.244586
5.184,0.227066
5.185,0.213765
5.186,0.217334
5.187,0.221227
5.188,0.221876
5.189,0.204032
5.19,0.175158
5.191,0.146932
5.192,0.127467
5.193,0.107676
5.194,0.070367
5.195,0.041168
5.196,0.022027
5.197,0.012943
5.198,0.004832
5.199,0.005481
5.2,0.018134
5.201,0.026569
5.202,0.027867
5.203,0.023325
5.204,0.025271
5.205,0.023325
5.206,0.015538
5.207,0.007752
5.208,0.005805
5.209,0.017485
5.21,0.029164
5.211,0.044088
5.212,0.045061
5.213,0.037275
5.214,0.027867
5.215,0.015214
5.216,0.014241
5.217,0.021378
5.218,0.029164
5.219,0.040195
5.22,0.053821
5.221,0.070043
5.222,0.072638
5.223,0.064527
5.224,0.070367
5.225,0.084317
5.226,0.10281
5.227,0.114165
5.228,0.110921
5.229,0.09989
5.23,0.102485
5.231,0.120978
5.232,0.115787
5.233,0.111894
5.234,0.114814
5.235,0.117409
5.236,0.118707
5.237,0.108974
5.238,0.106379
5.239,0.118707
5.24,0.123249
5.241,0.121302
5.242,0.126818
5.243,0.13428
5.244,0.136226
5.245,0.138822
5.246,0.143688
5.247,0.136226
5.248,0.124871
5.249,0.118707
5.25,0.113516
5.251,0.110596
5.252,0.115787
5.253,0.130062
5.254,0.130711
5.255,0.118383
5.256,0.112218
5.257,0.103134
5.258,0.097619
5.259,0.096321
5.26,0.095997
5.261,0.09697
5.262,0.092428
5.263,0.0801
5.264,0.082371
5.265,0.09113
5.266,0.093077
5.267,0.094375
5.268,0.088211
5.269,0.076531
5.27,0.058363
5.271,0.016836
5.272,-0.054863
5.273,-0.162249
5.274,-0.32122
5.275,-0.509389
5.276,-0.702099
5.277,-0.894161
5.278,-1.033017
5.279,-1.082979
5.28,-1.081033
5.281,-1.006414
5.282,-0.857825
5.283,-0.635916
5.284,-0.376697
5.285,-0.039615
5.286,0.390579
5.287,0.849972
5.288,1.304823
5.289,1.742156
5.29,2.132122
5.291,2.476992
5.292,2.755354
5.293,2.944822
5.294,3.069404
5.295,3.102496
5.296,3.029499
5.297,2.83484
5.298,2.529874
5.299,2.165214
5.3,1.791469
5.301,1.425187
5.302,1.067989
5.303,0.75459
5.304,0.529435
5.305,0.370464
5.306,0.272162
5.307,0.225769
5.308,0.212143
5.309,0.21344
5.31,0.21928
5.311,0.217334
5.312,0.206627
5.313,0.194299
5.314,0.181646
5.315,0.153745
5.316,0.109298
5.317,0.069718
5.318,0.044737
5.319,0.024947
5.32,-0.001332
5.321,-0.028909
5.322,-0.050321
5.323,-0.07076
5.324,-0.077897
5.325,-0.074978
5.326,-0.077897
5.327,-0.088279
5.328,-0.105474
5.329,-0.12202
5.33,-0.131428
5.331,-0.129157
5.332,-0.125264
5.333,-0.135321
5.334,-0.151543
5.335,-0.153814
5.336,-0.166467
5.337,-0.182364
5.338,-0.193394
5.339,-0.192097
5.34,-0.186257
5.341,-0.180742
5.342,-0.179768
5.343,-0.18431
5.344,-0.185608
5.345,-0.187555
5.346,-0.200856
5.347,-0.206371
5.348,-0.213185
5.349,-0.229082
5.35,-0.245303
5.351,-0.250494
5.352,-0.260551
5.353,-0.263795
5.354,-0.261524
5.355,-0.268338
5.356,-0.282288
5.357,-0.288777
5.358,-0.281639
5.359,-0.26704
5.36,-0.264769
5.361,-0.268662
5.362,-0.272555
5.363,-0.271582
5.364,-0.262822
5.365,-0.260876
5.366,-0.282288
5.367,-0.294941
5.368,-0.302078
5.369,-0.323491
5.37,-0.329655
5.371,-0.336143
5.372,-0.351391
5.373,-0.367288
5.374,-0.370857
5.375,-0.372804
5.376,-0.370533
5.377,-0.367288
5.378,-0.366964
5.379,-0.372479
5.38,-0.391945
5.381,-0.407518
5.382,-0.406544
5.383,-0.416602
5.384,-0.42601
5.385,-0.427308
5.386,-0.427308
5.387,-0.433472
5.388,-0.444178
5.389,-0.450991
5.39,-0.456831
5.391,-0.46851
5.392,-0.477919
5.393,-0.485381
5.394,-0.493491
5.395,-0.49706
5.396,-0.496087
5.397,-0.499656
5.398,-0.511335
5.399,-0.526259
5.4,-0.540209
5.401,-0.534045
5.402,-0.521392
5.403,-0.521392
5.404,-0.555457
5.405,-0.587252
5.406,-0.600878
5.407,-0.604122
5.408,-0.61645
5.409,-0.618072
5.41,-0.616126
5.411,-0.619046
5.412,-0.627481
5.413,-0.643053
5.414,-0.667061
5.415,-0.682634
5.416,-0.693015
5.417,-0.694962
5.418,-0.700802
5.419,-0.709886
5.42,-0.723512
5.421,-0.742978
5.422,-0.764714
5.423,-0.792291
5.424,-0.820192
5.425,-0.845822
5.426,-0.868207
5.427,-0.875993
5.428,-0.888971
5.429,-0.895459
5.43,-0.895135
5.431,-0.888646
5.432,-0.870154
5.433,-0.834142
5.434,-0.789695
5.435,-0.744924
5.436,-0.699504
5.437,-0.65084
5.438,-0.591794
5.439,-0.528205
5.44,-0.466239
5.441,-0.404273
5.442,-0.347174
5.443,-0.294616
5.444,-0.248547
5.445,-0.221295
5.446,-0.198261
5.447,-0.174902
5.448,-0.152192
5.449,-0.143432
5.45,-0.139863
5.451,-0.122993
5.452,-0.103203
5.453,-0.099959
5.454,-0.094443
5.455,-0.091523
5.456,-0.090226
5.457,-0.090226
5.458,-0.094443
5.459,-0.109043
5.46,-0.120722
5.461,-0.119424
5.462,-0.106447
5.463,-0.099959
5.464,-0.094119
5.465,-0.092172
5.466,-0.107096
5.467,-0.118127
5.468,-0.126237
5.469,-0.140188
5.47,-0.148623
5.471,-0.151867
5.472,-0.156409
5.473,-0.153814
5.474,-0.147325
5.475,-0.142134
5.476,-0.143432
5.477,-0.133699
5.478,-0.120722
5.479,-0.1191
5.48,-0.123966
5.481,-0.131104
5.482,-0.136295
5.483,-0.132402
5.484,-0.128833
5.485,-0.127535
5.486,-0.129157
5.487,-0.129806
5.488,-0.130455
5.489,-0.132726
5.49,-0.13305
5.491,-0.128508
5.492,-0.129806
5.493,-0.131104
5.494,-0.13597
5.495,-0.127535
5.496,-0.116829
5.497,-0.121371
5.498,-0.120073
5.499,-0.11034
5.5,-0.098985
5.501,-0.103203
5.502,-0.118776
5.503,-0.121371
5.504,-0.118127
5.505,-0.106123
5.506,-0.100607
5.507,-0.112611
5.508,-0.120722
5.509,-0.111962
5.51,-0.108394
5.511,-0.110989
5.512,-0.117153
5.513,-0.120722
5.514,-0.121047
5.515,-0.121371
5.516,-0.118127
5.517,-0.091199
5.518,-0.07952
5.519,-0.099959
5.52,-0.101905
5.521,-0.097688
5.522,-0.107096
5.523,-0.115531
5.524,-0.115207
5.525,-0.126562
5.526,-0.134348
5.527,-0.131753
5.528,-0.121047
5.529,-0.112611
5.53,-0.11618
5.531,-0.12494
5.532,-0.126886
5.533,-0.125589
5.534,-0.121695
5.535,-0.128508
5.536,-0.138241
5.537,-0.146676
5.538,-0.152192
5.539,-0.152192
5.54,-0.146352
5.541,-0.137268
5.542,-0.126237
5.543,-0.110989
5.544,-0.108069
5.545,-0.117478
5.546,-0.117478
5.547,-0.111962
5.548,-0.106447
5.549,-0.097039
5.55,-0.088279
5.551,-0.086981
5.552,-0.086981
5.553,-0.087955
5.554,-0.090226
5.555,-0.09931
5.556,-0.117478
5.557,-0.129157
5.558,-0.130455
5.559,-0.125589
5.56,-0.12202
5.561,-0.129806
5.562,-0.134348
5.563,-0.133375
5.564,-0.132402
5.565,-0.138566
5.566,-0.136619
5.567,-0.12786
5.568,-0.120722
5.569,-0.111962
5.57,-0.114882
5.571,-0.125264
5.572,-0.121047
5.573,-0.112287
5.574,-0.090875
5.575,-0.082764
5.576,-0.104176
5.577,-0.124615
5.578,-0.136944
5.579,-0.128833
5.58,-0.128184
5.581,-0.148947
5.582,-0.152516
5.583,-0.137268
5.584,-0.122344
5.585,-0.121695
5.586,-0.11618
5.587,-0.117153
5.588,-0.127211
5.589,-0.131104
5.59,-0.123966
5.591,-0.120722
5.592,-0.124615
5.593,-0.126237
5.594,-0.118451
5.595,-0.10742
5.596,-0.109043
5.597,-0.104501
5.598,-0.100932
5.599,-0.103527
5.6,-0.108718
5.601,-0.109043
5.602,-0.107096
5.603,-0.101256
5.604,-0.096714
5.605,-0.08763
5.606,-0.082764
5.607,-0.075626
5.608,-0.066867
5.609,-0.070111
5.61,-0.078222
5.611,-0.081791
5.612,-0.080168
5.613,-0.084062
5.614,-0.085359
5.615,-0.079195
5.616,-0.07368
5.617,-0.071733
5.618,-0.074978
5.619,-0.072382
5.62,-0.074329
5.621,-0.069138
5.622,-0.059729
5.623,-0.054538
5.624,-0.072058
5.625,-0.080493
5.626,-0.081466
5.627,-0.076275
5.628,-0.073355
5.629,-0.069462
5.63,-0.056809
5.631,-0.062974
5.632,-0.0766
5.633,-0.08471
5.634,-0.088604
5.635,-0.086657
5.636,-0.088928
5.637,-0.095741
5.638,-0.102878
5.639,-0.091523
5.64,-0.072382
5.641,-0.058107
5.642,-0.047401
5.643,-0.038966
5.644,-0.038641
5.645,-0.054863
5.646,-0.063622
5.647,-0.068813
5.648,-0.056485
5.649,-0.02534
5.65,-0.011389
5.651,-0.01658
5.652,-0.026638
5.653,-0.022096
5.654,-0.009118
5.655,0.016836
5.656,0.057714
5.657,0.088535
5.658,0.101188
5.659,0.105081
5.66,0.109623
5.661,0.118058
5.662,0.135253
5.663,0.131035
5.664,0.101837
5.665,0.077829
5.666,0.071989
5.667,0.066474
5.668,0.048306
5.669,0.02592
5.67,0.003534
5.671,-0.007496
5.672,-0.020473
5.673,-0.044481
5.674,-0.071409
5.675,-0.089577
5.676,-0.098661
5.677,-0.110989
5.678,-0.125913
5.679,-0.133699
5.68,-0.130455
5.681,-0.11618
5.682,-0.108394
5.683,-0.105798
5.684,-0.104501
5.685,-0.106772
5.686,-0.100932
5.687,-0.105474
5.688,-0.113585
5.689,-0.118127
5.69,-0.113585
5.691,-0.098012
5.692,-0.099634
5.693,-0.085359
5.694,-0.090875
5.695,-0.099959
5.696,-0.101256
5.697,-0.108394
5.698,-0.123318
5.699,-0.131428
5.7,-0.12786
5.701,-0.121047
5.702,-0.105149
5.703,-0.099959
5.704,-0.115531
5.705,-0.120722
5.706,-0.114558
5.707,-0.110016
5.708,-0.105798
5.709,-0.093146
5.71,-0.081142
5.711,-0.065894
5.712,-0.058432
5.713,-0.074004
5.714,-0.084062
5.715,-0.073031
5.716,-0.066218
5.717,-0.066542
5.718,-0.079195
5.719,-0.09347
5.72,-0.100607
5.721,-0.10223
5.722,-0.105474
5.723,-0.107096
5.724,-0.109367
5.725,-0.113585
5.726,-0.108718
5.727,-0.101905
5.728,-0.101905
5.729,-0.101581
5.73,-0.100283
5.731,-0.101256
5.732,-0.106447
5.733,-0.111962
5.734,-0.117802
5.735,-0.117478
5.736,-0.105474
5.737,-0.088928
5.738,-0.07368
5.739,-0.066867
5.74,-0.087306
5.741,-0.106123
5.742,-0.105149
5.743,-0.097363
5.744,-0.090226
5.745,-0.087955
5.746,-0.086981
5.747,-0.087955
5.748,-0.095417
5.749,-0.11034
5.75,-0.142783
5.751,-0.205723
5.752,-0.30078
5.753,-0.434121
5.754,-0.6025
5.755,-0.805268
5.756,-1.028799
5.757,-1.22443
5.758,-1.353228
5.759,-1.417465
5.76,-1.420385
5.761,-1.323056
5.762,-1.142998
5.763,-0.889619
5.764,-0.563893
5.765,-0.162898
5.766,0.299414
5.767,0.783139
5.768,1.265567
5.769,1.732423
5.77,2.125958
5.771,2.470179
5.772,2.749514
5.773,2.938982
5.774,3.087572
5.775,3.142401
5.776,3.050911
5.777,2.824458
5.778,2.491592
5.779,2.09319
5.78,1.689923
5.781,1.324289
5.782,0.97066
5.783,0.642986
5.784,0.394797
5.785,0.231609
5.786,0.137199
5.787,0.099241
5.788,0.102161
5.789,0.110596
5.79,0.106054
5.791,0.092753
5.792,0.080749
5.793,0.066149
5.794,0.036951
5.795,-0.003279
5.796,-0.037019
5.797,-0.069138
5.798,-0.107096
5.799,-0.140837
5.8,-0.174577
5.801,-0.211562
5.802,-0.237841
5.803,-0.24725
5.804,-0.25536
5.805,-0.258929
5.806,-0.268662
5.807,-0.28099
5.808,-0.297536
5.809,-0.313758
5.81,-0.317651
5.811,-0.310513
5.812,-0.307593
5.813,-0.313433
5.814,-0.314731
5.815,-0.322517
5.816,-0.328681
5.817,-0.321544
5.818,-0.321868
5.819,-0.351716
5.82,-0.383834
5.821,-0.395189
5.822,-0.401029
5.823,-0.399407
5.824,-0.399083
5.825,-0.395189
5.826,-0.382537
5.827,-0.384159
5.828,-0.395838
5.829,-0.405247
5.83,-0.409789
5.831,-0.414006
5.832,-0.41498
5.833,-0.418873
5.834,-0.429903
5.835,-0.438339
5.836,-0.43477
5.837,-0.435743
5.838,-0.434121
5.839,-0.432499
5.84,-0.432499
5.841,-0.431525
5.842,-0.426335
5.843,-0.422441
5.844,-0.422441
5.845,-0.430877
5.846,-0.447098
5.847,-0.459751
5.848,-0.456831
5.849,-0.443205
5.85,-0.433472
5.851,-0.441907
5.852,-0.475323
5.853,-0.495762
5.854,-0.499007
5.855,-0.501278
5.856,-0.500304
5.857,-0.501927
5.858,-0.504198
5.859,-0.503549
5.86,-0.506144
5.861,-0.507118
5.862,-0.501602
5.863,-0.507442
5.864,-0.510362
5.865,-0.509064
5.866,-0.514904
5.867,-0.52269
5.868,-0.535992
5.869,-0.538587
5.87,-0.529828
5.871,-0.520744
5.872,-0.516526
5.873,-0.544102
5.874,-0.581736
5.875,-0.604122
5.876,-0.611584
5.877,-0.621965
5.878,-0.641431
5.879,-0.662844
5.88,-0.678741
5.881,-0.689447
5.882,-0.700153
5.883,-0.712157
5.884,-0.722214
5.885,-0.723836
5.886,-0.723187
5.887,-0.727405
5.888,-0.743302
5.889,-0.760821
5.89,-0.768607
5.891,-0.77834
5.892,-0.789046
5.893,-0.794562
5.894,-0.799753
5.895,-0.804295
5.896,-0.825707
5.897,-0.851337
5.898,-0.874371
5.899,-0.886375
5.9,-0.912654
5.901,-0.942826
5.902,-0.972998
5.903,-1.00025
5.904,-1.02588
5.905,-1.054754
5.906,-1.07422
5.907,-1.092388
5.908,-1.097903
5.909,-1.08233
5.91,-1.070326
5.911,-1.076491
5.912,-1.049239
5.913,-0.995059
5.914,-0.938284
5.915,-0.873722
5.916,-0.798779
5.917,-0.727729
5.918,-0.655382
5.919,-0.59082
5.92,-0.536316
5.921,-0.474675
5.922,-0.424064
5.923,-0.381239
5.924,-0.329655
5.925,-0.287154
5.926,-0.266715
5.927,-0.255685
5.928,-0.245952
5.929,-0.236868
5.93,-0.229406
5.931,-0.219024
5.932,-0.213509
5.933,-0.214158
5.934,-0.218051
5.935,-0.205074
5.936,-0.187555
5.937,-0.187555
5.938,-0.191448
5.939,-0.19015
5.94,-0.179444
5.941,-0.176524
5.942,-0.180093
5.943,-0.18431
5.944,-0.188203
5.945,-0.190474
5.946,-0.192097
5.947,-0.193719
5.948,-0.197287
5.949,-0.201829
5.95,-0.204749
5.951,-0.204425
5.952,-0.206696
5.953,-0.212211
5.954,-0.213833
5.955,-0.20702
5.956,-0.196963
5.957,-0.178146
5.958,-0.173929
5.959,-0.173604
5.96,-0.178471
5.961,-0.195341
5.962,-0.204425
5.963,-0.202803
5.964,-0.199234
5.965,-0.213185
5.966,-0.223242
5.967,-0.221944
5.968,-0.199234
5.969,-0.184959
5.97,-0.210913
5.971,-0.236868
5.972,-0.257631
5.973,-0.260551
5.974,-0.25536
5.975,-0.255685
5.976,-0.268338
5.977,-0.279044
5.978,-0.28391
5.979,-0.284235
5.98,-0.282612
5.981,-0.281964
5.982,-0.282288
5.983,-0.277746
5.984,-0.283586
5.985,-0.288777
5.986,-0.290723
5.987,-0.294616
5.988,-0.298509
5.989,-0.294292
5.99,-0.286181
5.991,-0.289425
5.992,-0.297861
5.993,-0.300456
5.994,-0.300456
5.995,-0.300132
5.996,-0.308242
5.997,-0.311811
5.998,-0.319597
5.999,-0.323491
6,-0.31538
6.001,-0.305322
6.002,-0.303376
6.003,-0.306945
6.004,-0.306945
6.005,-0.309864
6.006,-0.315704
6.007,-0.31538
6.008,-0.304349
6.009,-0.296563
6.01,-0.293643
6.011,-0.287154
6.012,-0.264444
6.013,-0.243032
6.014,-0.245952
6.015,-0.254387
6.016,-0.272555
6.017,-0.291372
6.018,-0.299483
6.019,-0.301105
6.02,-0.300456
6.021,-0.294292
6.022,-0.292021
6.023,-0.28099
6.024,-0.263147
6.025,-0.251143
6.026,-0.255036
6.027,-0.251143
6.028,-0.240437
6.029,-0.238814
6.03,-0.256334
6.031,-0.261524
6.032,-0.240112
6.033,-0.226811
6.034,-0.236219
6.035,-0.24433
6.036,-0.244654
6.037,-0.245627
6.038,-0.268662
6.039,-0.29267
6.04,-0.306296
6.041,-0.314406
6.042,-0.319273
6.043,-0.321868
6.044,-0.316353
6.045,-0.297212
6.046,-0.284235
6.047,-0.282937
6.048,-0.281964
6.049,-0.280017
6.05,-0.277746
6.051,-0.274177
6.052,-0.287803
6.053,-0.290399
6.054,-0.275151
6.055,-0.262173
6.056,-0.256982
6.057,-0.255036
6.058,-0.259578
6.059,-0.263795
6.06,-0.250169
6.061,-0.226162
6.062,-0.218375
6.063,-0.221295
6.064,-0.223566
6.065,-0.214807
6.066,-0.215456
6.067,-0.232326
6.068,-0.243032
6.069,-0.242383
6.07,-0.239139
6.071,-0.236868
6.072,-0.236543
6.073,-0.239788
6.074,-0.247574
6.075,-0.255036
6.076,-0.251467
6.077,-0.246276
6.078,-0.239139
6.079,-0.238166
6.08,-0.237192
6.081,-0.235895
6.082,-0.237192
6.083,-0.234272
6.084,-0.228757
6.085,-0.226811
6.086,-0.227459
6.087,-0.22973
6.088,-0.227784
6.089,-0.231353
6.09,-0.238814
6.091,-0.245303
6.092,-0.240761
6.093,-0.229082
6.094,-0.22973
6.095,-0.231677
6.096,-0.240437
6.097,-0.250169
6.098,-0.248223
6.099,-0.243032
6.1,-0.251792
6.101,-0.246601
6.102,-0.23557
6.103,-0.223891
6.104,-0.226486
6.105,-0.225837
6.106,-0.223891
6.107,-0.230055
6.108,-0.231028
6.109,-0.227784
6.11,-0.214158
6.111,-0.193394
6.112,-0.179768
6.113,-0.182039
6.114,-0.186581
6.115,-0.182364
6.116,-0.169711
6.117,-0.160951
6.118,-0.146352
6.119,-0.114558
6.12,-0.094443
6.121,-0.077897
6.122,-0.065569
6.123,-0.069462
6.124,-0.069787
6.125,-0.042535
6.126,-0.006523
6.127,0.023325
6.128,0.04571
6.129,0.055119
6.13,0.047008
6.131,0.034355
6.132,0.034031
6.133,0.045061
6.134,0.046684
6.135,0.042466
6.136,0.0376
6.137,0.043115
6.138,0.044737
6.139,0.035329
6.14,0.016512
6.141,-0.003603
6.142,-0.031504
6.143,-0.058756
6.144,-0.083088
6.145,-0.103852
6.146,-0.12202
6.147,-0.134673
6.148,-0.135321
6.149,-0.132726
6.15,-0.143108
6.151,-0.152192
6.152,-0.160302
6.153,-0.166467
6.154,-0.169387
6.155,-0.168738
6.156,-0.17328
6.157,-0.173929
6.158,-0.172306
6.159,-0.172631
6.16,-0.179119
6.161,-0.18723
6.162,-0.182039
6.163,-0.170035
6.164,-0.174902
6.165,-0.19015
6.166,-0.185284
6.167,-0.173929
6.168,-0.176524
6.169,-0.183013
6.17,-0.188203
6.171,-0.188203
6.172,-0.179119
6.173,-0.165493
6.174,-0.159329
6.175,-0.15868
6.176,-0.153814
6.177,-0.146676
6.178,-0.150894
6.179,-0.151867
6.18,-0.153165
6.181,-0.152192
6.182,-0.151867
6.183,-0.159654
6.184,-0.166791
6.185,-0.169062
6.186,-0.178146
6.187,-0.161925
6.188,-0.134024
6.189,-0.159005
6.19,-0.180417
6.191,-0.175551
6.192,-0.169387
6.193,-0.16744
6.194,-0.158356
6.195,-0.148623
6.196,-0.14473
6.197,-0.149596
6.198,-0.160302
6.199,-0.158356
6.2,-0.145703
6.201,-0.132726
6.202,-0.122344
6.203,-0.117802
6.204,-0.120073
6.205,-0.125264
6.206,-0.12494
6.207,-0.13305
6.208,-0.149921
6.209,-0.157383
6.21,-0.149921
6.211,-0.147001
6.212,-0.150894
6.213,-0.151867
6.214,-0.164845
6.215,-0.201505
6.216,-0.266715
6.217,-0.345552
6.218,-0.44061
6.219,-0.578168
6.22,-0.76147
6.221,-0.956127
6.222,-1.140727
6.223,-1.286072
6.224,-1.360041
6.225,-1.363286
6.226,-1.292885
6.227,-1.137483
6.228,-0.917196
6.229,-0.627156
6.23,-0.262822
6.231,0.176455
6.232,0.651745
6.233,1.125089
6.234,1.572154
6.235,1.978666
6.236,2.322563
6.237,2.612929
6.238,2.811481
6.239,2.950013
6.24,2.997705
6.241,2.916597
6.242,2.683979
6.243,2.352411
6.244,1.964067
6.245,1.56891
6.246,1.200357
6.247,0.837319
6.248,0.511267
6.249,0.268918
6.25,0.090157
6.251,-0.0195
6.252,-0.062325
6.253,-0.072058
6.254,-0.065894
6.255,-0.058432
6.256,-0.063298
6.257,-0.074004
6.258,-0.083737
6.259,-0.114558
6.26,-0.153814
6.261,-0.183337
6.262,-0.218051
6.263,-0.244979
6.264,-0.25828
6.265,-0.277097
6.266,-0.300456
6.267,-0.329006
6.268,-0.350094
6.269,-0.370857
6.27,-0.389999
6.271,-0.401354
6.272,-0.399083
6.273,-0.399083
6.274,-0.408491
6.275,-0.411086
6.276,-0.41498
6.277,-0.42309
6.278,-0.427957
6.279,-0.435094
6.28,-0.439961
6.281,-0.435094
6.282,-0.419846
6.283,-0.409789
6.284,-0.415953
6.285,-0.439312
6.286,-0.457155
6.287,-0.452938
6.288,-0.447098
6.289,-0.439961
6.29,-0.439961
6.291,-0.447098
6.292,-0.462671
6.293,-0.469159
6.294,-0.469159
6.295,-0.466564
6.296,-0.472404
6.297,-0.478243
6.298,-0.476946
6.299,-0.480839
6.3,-0.487976
6.301,-0.487003
6.302,-0.479541
6.303,-0.493491
6.304,-0.501602
6.305,-0.506144
6.306,-0.499007
6.307,-0.489274
6.308,-0.482785
6.309,-0.48311
6.31,-0.474026
6.311,-0.4604
6.312,-0.461373
6.313,-0.467213
6.314,-0.473377
6.315,-0.461049
6.316,-0.445152
6.317,-0.461049
6.318,-0.465915
6.319,-0.4604
6.32,-0.470457
6.321,-0.484732
6.322,-0.486354
6.323,-0.495762
6.324,-0.511335
6.325,-0.523988
6.326,-0.523988
6.327,-0.52561
6.328,-0.541507
6.329,-0.549942
6.33,-0.547996
6.331,-0.534694
6.332,-0.519121
6.333,-0.523015
6.334,-0.535992
6.335,-0.547022
6.336,-0.565515
6.337,-0.587252
6.338,-0.605095
6.339,-0.620992
6.34,-0.629752
6.341,-0.636565
6.342,-0.63916
6.343,-0.647595
6.344,-0.655706
6.345,-0.662195
6.346,-0.669332
6.347,-0.685878
6.348,-0.704695
6.349,-0.720267
6.35,-0.722863
6.351,-0.727729
6.352,-0.748817
6.353,-0.762768
6.354,-0.771852
6.355,-0.770878
6.356,-0.757901
6.357,-0.760821
6.358,-0.778665
6.359,-0.782233
6.36,-0.788073
6.361,-0.796508
6.362,-0.808837
6.363,-0.830573
6.364,-0.839982
6.365,-0.853932
6.366,-0.888322
6.367,-0.920765
6.368,-0.94023
6.369,-0.953208
6.37,-0.966509
6.371,-0.985002
6.372,-1.011929
6.373,-1.035288
6.374,-1.032368
6.375,-1.006738
6.376,-0.97462
6.377,-0.942177
6.378,-0.884429
6.379,-0.832196
6.38,-0.795211
6.381,-0.733894
6.382,-0.645
6.383,-0.562595
6.384,-0.492518
6.385,-0.425037
6.386,-0.376372
6.387,-0.335819
6.388,-0.295265
6.389,-0.266067
6.39,-0.249521
6.391,-0.237841
6.392,-0.228108
6.393,-0.220646
6.394,-0.21286
6.395,-0.203776
6.396,-0.19307
6.397,-0.179444
6.398,-0.175875
6.399,-0.174577
6.4,-0.16744
6.401,-0.159654
6.402,-0.160951
6.403,-0.161276
6.404,-0.166791
6.405,-0.171982
6.406,-0.17328
6.407,-0.173604
6.408,-0.172306
6.409,-0.17328
6.41,-0.169387
6.411,-0.166791
6.412,-0.163547
6.413,-0.157707
6.414,-0.159005
6.415,-0.1616
6.416,-0.162898
6.417,-0.151867
6.418,-0.136619
6.419,-0.135646
6.42,-0.146676
6.421,-0.149272
6.422,-0.153814
6.423,-0.15057
6.424,-0.147001
6.425,-0.139215
6.426,-0.134997
6.427,-0.126237
6.428,-0.116505
6.429,-0.110016
6.43,-0.10742
6.431,-0.107096
6.432,-0.105798
6.433,-0.105798
6.434,-0.105798
6.435,-0.090226
6.436,-0.074978
6.437,-0.075302
6.438,-0.070111
6.439,-0.050645
6.44,-0.043832
6.441,-0.038966
6.442,-0.056161
6.443,-0.094768
6.444,-0.118127
6.445,-0.122993
6.446,-0.120398
6.447,-0.120398
6.448,-0.119749
6.449,-0.118451
6.45,-0.118127
6.451,-0.117153
6.452,-0.099959
6.453,-0.089577
6.454,-0.087955
6.455,-0.085035
6.456,-0.077573
6.457,-0.073355
6.458,-0.070436
6.459,-0.064271
6.46,-0.06492
6.461,-0.066867
6.462,-0.072382
6.463,-0.072707
6.464,-0.070111
6.465,-0.06492
6.466,-0.05097
6.467,-0.039615
6.468,-0.042535
6.469,-0.038317
6.47,-0.036695
6.471,-0.026962
6.472,-0.011714
6.473,-0.032153
6.474,-0.046103
6.475,-0.053565
6.476,-0.051294
6.477,-0.045779
6.478,-0.040912
6.479,-0.040912
6.48,-0.039939
6.481,-0.043183
6.482,-0.051943
6.483,-0.055512
6.484,-0.049348
6.485,-0.040912
6.486,-0.043183
6.487,-0.043508
6.488,-0.041237
6.489,-0.037668
6.49,-0.041886
6.491,-0.044481
6.492,-0.043183
6.493,-0.038317
6.494,-0.032477
6.495,-0.028584
6.496,-0.028584
6.497,-0.023069
6.498,-0.01366
6.499,-0.007821
6.5,-0.011065
6.501,-0.001981
6.502,0.01716
6.503,0.029489
6.504,0.018134
6.505,0.016187
6.506,0.022027
6.507,0.023973
6.508,0.015863
6.509,0.010023
6.51,0.010996
6.511,0.014565
6.512,0.009699
6.513,-3.43E-05
6.514,-0.010416
6.515,-0.015607
6.516,-0.004901
6.517,-0.005874
6.518,-0.012038
6.519,-0.018527
6.52,-0.015607
6.521,-0.001008
6.522,0.002561
6.523,-0.005225
6.524,0.001912
6.525,0.013916
6.526,0.026569
6.527,0.029489
6.528,0.030462
6.529,0.040844
6.53,0.052199
6.531,0.060958
6.532,0.061607
6.533,0.061607
6.534,0.062256
6.535,0.066149
6.536,0.070691
6.537,0.067123
6.538,0.061607
6.539,0.068745
6.54,0.080749
6.541,0.091779
6.542,0.101512
6.543,0.09989
6.544,0.087562
6.545,0.08302
6.546,0.082371
6.547,0.086264
6.548,0.083344
6.549,0.082046
6.55,0.07718
6.551,0.081722
6.552,0.093401
6.553,0.098917
6.554,0.10281
6.555,0.115787
6.556,0.123898
6.557,0.126493
6.558,0.124871
6.559,0.134928
6.56,0.15115
6.561,0.152772
6.562,0.156341
6.563,0.164776
6.564,0.171913
6.565,0.181646
6.566,0.201437
6.567,0.20825
6.568,0.202734
6.569,0.215711
6.57,0.230311
6.571,0.24491
6.572,0.248154
6.573,0.265674
6.574,0.293899
6.575,0.330235
6.576,0.358136
6.577,0.371113
6.578,0.352945
6.579,0.325369
6.58,0.301036
6.581,0.280922
6.582,0.275407
6.583,0.271189
6.584,0.27346
6.585,0.266647
6.586,0.264376
6.587,0.258861
6.588,0.246532
6.589,0.235177
6.59,0.21344
6.591,0.190081
6.592,0.157963
6.593,0.124871
6.594,0.110272
6.595,0.11157
6.596,0.110921
6.597,0.121302
6.598,0.128115
6.599,0.130386
6.6,0.126493
6.601,0.126169
6.602,0.11968
6.603,0.11157
6.604,0.110921
6.605,0.120329
6.606,0.137524
6.607,0.150825
6.608,0.160883
6.609,0.17094
6.61,0.177753
6.611,0.183268
6.612,0.180349
6.613,0.179375
6.614,0.180349
6.615,0.185539
6.616,0.19073
6.617,0.19365
6.618,0.195272
6.619,0.195921
6.62,0.194948
6.621,0.194624
6.622,0.192028
6.623,0.188784
6.624,0.191379
6.625,0.188459
6.626,0.1797
6.627,0.177429
6.628,0.180349
6.629,0.181646
6.63,0.179051
6.631,0.177429
6.632,0.17094
6.633,0.165749
6.634,0.167371
6.635,0.173211
6.636,0.174509
6.637,0.182295
6.638,0.203383
6.639,0.216685
6.64,0.207276
6.641,0.189433
6.642,0.181971
6.643,0.186188
6.644,0.174833
6.645,0.172562
6.646,0.17094
6.647,0.17678
6.648,0.191704
6.649,0.205005
6.65,0.198841
6.651,0.184566
6.652,0.172238
6.653,0.159261
6.654,0.162181
6.655,0.163478
6.656,0.1651
6.657,0.166723
6.658,0.17386
6.659,0.177104
6.66,0.186188
6.661,0.211169
6.662,0.212143
6.663,0.194624
6.664,0.181322
6.665,0.177104
6.666,0.160558
6.667,0.125196
6.668,0.069718
6.669,-0.004576
6.67,-0.116829
6.671,-0.27807
6.672,-0.471106
6.673,-0.682634
6.674,-0.883131
6.675,-1.017444
6.676,-1.062216
6.677,-1.031719
6.678,-0.903245
6.679,-0.715077
6.68,-0.478892
6.681,-0.175875
6.682,0.19949
6.683,0.648825
6.684,1.110814
6.685,1.553662
6.686,1.980937
6.687,2.351762
6.688,2.680086
6.689,2.941254
6.69,3.128451
6.691,3.26309
6.692,3.296831
6.693,3.216696
6.694,3.002896
6.695,2.691117
6.696,2.327429
6.697,1.953685
6.698,1.605895
6.699,1.279842
6.7,0.975527
6.701,0.73707
6.702,0.555714
6.703,0.44703
6.704,0.405503
6.705,0.399014
6.706,0.395121
6.707,0.389281
6.708,0.380522
6.709,0.373384
6.71,0.357487
6.711,0.335102
6.712,0.312392
6.713,0.277678
6.714,0.242639
6.715,0.218956
6.716,0.198192
6.717,0.162505
6.718,0.136551
6.719,0.125196
6.72,0.121951
6.721,0.114814
6.722,0.096646
6.723,0.081722
6.724,0.060634
6.725,0.04279
6.726,0.037275
6.727,0.040844
6.728,0.030462
6.729,0.007428
6.73,-0.011714
6.731,-0.021771
6.732,-0.033775
6.733,-0.046428
6.734,-0.054214
6.735,-0.058432
6.736,-0.06784
6.737,-0.072382
6.738,-0.07076
6.739,-0.082439
6.74,-0.096714
6.741,-0.114234
6.742,-0.125589
6.743,-0.132726
6.744,-0.136295
6.745,-0.141486
6.746,-0.149921
6.747,-0.157383
6.748,-0.159654
6.749,-0.147001
6.75,-0.138241
6.751,-0.136295
6.752,-0.131753
6.753,-0.139539
6.754,-0.15576
6.755,-0.171658
6.756,-0.180742
6.757,-0.181066
6.758,-0.183013
6.759,-0.184635
6.76,-0.172955
6.761,-0.167764
6.762,-0.16452
6.763,-0.159654
6.764,-0.146676
6.765,-0.126237
6.766,-0.131104
6.767,-0.147974
6.768,-0.1616
6.769,-0.182688
6.77,-0.195016
6.771,-0.187555
6.772,-0.182039
6.773,-0.200856
6.774,-0.220646
6.775,-0.219349
6.776,-0.206047
6.777,-0.200532
6.778,-0.201505
6.779,-0.19891
6.78,-0.200856
6.781,-0.198585
6.782,-0.185932
6.783,-0.18139
6.784,-0.181715
6.785,-0.184959
6.786,-0.192745
6.787,-0.205398
6.788,-0.219349
6.789,-0.225188
6.79,-0.227135
6.791,-0.232975
6.792,-0.244979
6.793,-0.250494
6.794,-0.257631
6.795,-0.277422
6.796,-0.29559
6.797,-0.311811
6.798,-0.329006
6.799,-0.33809
6.8,-0.34393
6.801,-0.353662
6.802,-0.359502
6.803,-0.357556
6.804,-0.355609
6.805,-0.373453
6.806,-0.385457
6.807,-0.378968
6.808,-0.376372
6.809,-0.380266
6.81,-0.396812
6.811,-0.415953
6.812,-0.436716
6.813,-0.453587
6.814,-0.473377
6.815,-0.483434
6.816,-0.488301
6.817,-0.499656
6.818,-0.514904
6.819,-0.543129
6.82,-0.58271
6.821,-0.617099
6.822,-0.630401
6.823,-0.640458
6.824,-0.668359
6.825,-0.697557
6.826,-0.709886
6.827,-0.691393
6.828,-0.662519
6.829,-0.615801
6.83,-0.56519
6.831,-0.529503
6.832,-0.476621
6.833,-0.408815
6.834,-0.341983
6.835,-0.280017
6.836,-0.217402
6.837,-0.146676
6.838,-0.081142
6.839,-0.025015
6.84,0.013916
6.841,0.040195
6.842,0.06031
6.843,0.079127
6.844,0.089508
6.845,0.090482
6.846,0.097295
6.847,0.113516
6.848,0.131684
6.849,0.142066
6.85,0.142066
6.851,0.136551
6.852,0.130386
6.853,0.133306
6.854,0.137199
6.855,0.13947
6.856,0.133306
6.857,0.127467
6.858,0.124871
6.859,0.124547
6.86,0.124222
6.861,0.123249
6.862,0.127791
6.863,0.131684
6.864,0.123249
6.865,0.11676
6.866,0.115463
6.867,0.113516
6.868,0.107352
6.869,0.109947
6.87,0.120329
6.871,0.126493
6.872,0.119356
6.873,0.107027
6.874,0.103134
6.875,0.091455
6.876,0.08594
6.877,0.090806
6.878,0.099241
6.879,0.10573
6.88,0.115787
6.881,0.136551
6.882,0.147906
6.883,0.149852
6.884,0.136875
6.885,0.126169
6.886,0.119356
6.887,0.124547
6.888,0.126818
6.889,0.114814
6.89,0.110272
6.891,0.108974
6.892,0.108325
6.893,0.127467
6.894,0.151799
6.895,0.15991
6.896,0.15699
6.897,0.149203
6.898,0.143039
6.899,0.140444
6.9,0.132333
6.901,0.121302
6.902,0.114489
6.903,0.127142
6.904,0.135577
6.905,0.132009
6.906,0.12844
6.907,0.120654
6.908,0.121302
6.909,0.119356
6.91,0.114165
6.911,0.109623
6.912,0.106054
6.913,0.103134
6.914,0.102161
6.915,0.096321
6.916,0.085615
6.917,0.078478
6.918,0.069718
6.919,0.068745
6.92,0.078478
6.921,0.0801
6.922,0.071016
6.923,0.059661
6.924,0.056416
6.925,0.069069
6.926,0.080424
6.927,0.091455
6.928,0.104756
6.929,0.110596
6.93,0.097619
6.931,0.078153
6.932,0.072638
6.933,0.073936
6.934,0.071665
6.935,0.06031
6.936,0.063878
6.937,0.06842
6.938,0.062256
6.939,0.059985
6.94,0.061607
6.941,0.066798
6.942,0.069718
6.943,0.067123
6.944,0.05739
6.945,0.059661
6.946,0.076531
6.947,0.092428
6.948,0.084317
6.949,0.073611
6.95,0.074585
6.951,0.074585
6.952,0.067123
6.953,0.059985
6.954,0.052199
6.955,0.051874
6.956,0.059661
6.957,0.0655
6.958,0.069718
6.959,0.06842
6.96,0.062581
6.961,0.068096
6.962,0.071989
6.963,0.062256
6.964,0.058363
6.965,0.067771
6.966,0.074909
6.967,0.073936
6.968,0.061283
6.969,0.05155
6.97,0.051874
6.971,0.059336
6.972,0.069394
6.973,0.077829
6.974,0.074585
6.975,0.0655
6.976,0.069394
6.977,0.072638
6.978,0.072314
6.979,0.07718
6.98,0.086913
6.981,0.095997
6.982,0.101837
6.983,0.106054
6.984,0.106703
6.985,0.116436
6.986,0.126818
6.987,0.110272
6.988,0.095997
6.989,0.098592
6.99,0.10573
6.991,0.113841
6.992,0.119356
6.993,0.124547
6.994,0.121302
6.995,0.118383
6.996,0.117085
6.997,0.110272
6.998,0.09697
6.999,0.089833
7,0.086264
7.001,0.08302
7.002,0.097295
7.003,0.110921
7.004,0.117734
7.005,0.117085
7.006,0.121627
7.007,0.124547
7.008,0.109623
7.009,0.09989
7.01,0.098268
7.011,0.090806
7.012,0.092753
7.013,0.108974
7.014,0.117409
7.015,0.118058
7.016,0.118383
7.017,0.113516
7.018,0.089508
7.019,0.072314
7.02,0.061607
7.021,0.056416
7.022,0.058687
7.023,0.070367
7.024,0.079127
7.025,0.077504
7.026,0.084966
7.027,0.096646
7.028,0.106379
7.029,0.121302
7.03,0.134604
7.031,0.148879
7.032,0.163478
7.033,0.151799
7.034,0.140768
7.035,0.143364
7.036,0.142715
7.037,0.136226
7.038,0.122276
7.039,0.120654
7.04,0.11968
7.041,0.108974
7.042,0.10573
7.043,0.11157
7.044,0.112218
7.045,0.110921
7.046,0.1226
7.047,0.135902
7.048,0.137524
7.049,0.144012
7.05,0.144012
7.051,0.12844
7.052,0.10573
7.053,0.098592
7.054,0.107676
7.055,0.117085
7.056,0.126169
7.057,0.13428
7.058,0.137199
7.059,0.144986
7.06,0.160234
7.061,0.183917
7.062,0.211818
7.063,0.238746
7.064,0.261456
7.065,0.264051
7.066,0.263078
7.067,0.268269
7.068,0.263403
7.069,0.243937
7.07,0.226742
7.071,0.219929
7.072,0.218956
7.073,0.232257
7.074,0.253021
7.075,0.24783
7.076,0.229662
7.077,0.213116
7.078,0.195272
7.079,0.180349
7.08,0.143688
7.081,0.110272
7.082,0.094699
7.083,0.091455
7.084,0.080424
7.085,0.06842
7.086,0.063554
7.087,0.062905
7.088,0.060634
7.089,0.066474
7.09,0.076531
7.091,0.088211
7.092,0.091779
7.093,0.102485
7.094,0.111894
7.095,0.121627
7.096,0.130062
7.097,0.120005
7.098,0.095997
7.099,0.092104
7.1,0.09697
7.101,0.104756
7.102,0.110272
7.103,0.116436
7.104,0.118383
7.105,0.119356
7.106,0.119031
7.107,0.107027
7.108,0.092104
7.109,0.092753
7.11,0.101837
7.111,0.115463
7.112,0.136875
7.113,0.150825
7.114,0.150825
7.115,0.140768
7.116,0.125844
7.117,0.117734
7.118,0.121302
7.119,0.130711
7.12,0.121627
7.121,0.108325
7.122,0.095348
7.123,0.095024
7.124,0.092753
7.125,0.090806
7.126,0.073936
7.127,0.058039
7.128,0.046359
7.129,0.042466
7.13,0.043439
7.131,0.050252
7.132,0.051226
7.133,0.053497
7.134,0.068096
7.135,0.078153
7.136,0.079451
7.137,0.079127
7.138,0.079127
7.139,0.081073
7.14,0.081722
7.141,0.07718
7.142,0.072314
7.143,0.0655
7.144,0.059012
7.145,0.059012
7.146,0.060958
7.147,0.064527
7.148,0.070691
7.149,0.072638
7.15,0.070043
7.151,0.067771
7.152,0.058687
7.153,0.050252
7.154,0.04863
7.155,0.060958
7.156,0.078153
7.157,0.088211
7.158,0.098268
7.159,0.098592
7.16,0.079775
7.161,0.070367
7.162,0.066798
7.163,0.057065
7.164,0.041493
7.165,-0.002954
7.166,-0.072058
7.167,-0.175551
7.168,-0.359502
7.169,-0.58271
7.17,-0.809161
7.171,-1.035288
7.172,-1.213399
7.173,-1.309755
7.174,-1.334736
7.175,-1.253629
7.176,-1.069678
7.177,-0.832196
7.178,-0.530801
7.179,-0.172631
7.18,0.275731
7.181,0.748101
7.182,1.212036
7.183,1.682136
7.184,2.085404
7.185,2.426381
7.186,2.734591
7.187,2.95488
7.188,3.103145
7.189,3.183604
7.19,3.180684
7.191,3.065835
7.192,2.834191
7.193,2.516248
7.194,2.143152
7.195,1.758053
7.196,1.393393
7.197,1.042359
7.198,0.730257
7.199,0.499588
7.2,0.343861
7.201,0.258536
7.202,0.214738
7.203,0.201761
7.204,0.211494
7.205,0.217982
7.206,0.214089
7.207,0.196246
7.208,0.167047
7.209,0.14823
7.21,0.133306
7.211,0.118058
7.212,0.089833
7.213,0.057065
7.214,0.018458
7.215,-0.015607
7.216,-0.047725
7.217,-0.077897
7.218,-0.097688
7.219,-0.098336
7.22,-0.102554
7.221,-0.114558
7.222,-0.122993
7.223,-0.130131
7.224,-0.13305
7.225,-0.137592
7.226,-0.143108
7.227,-0.153165
7.228,-0.163222
7.229,-0.174902
7.23,-0.18139
7.231,-0.180742
7.232,-0.177173
7.233,-0.172306
7.234,-0.175875
7.235,-0.19015
7.236,-0.199883
7.237,-0.201829
7.238,-0.211562
7.239,-0.223891
7.24,-0.230379
7.241,-0.233948
7.242,-0.234272
7.243,-0.239788
7.244,-0.242708
7.245,-0.244979
7.246,-0.25244
7.247,-0.258929
7.248,-0.256334
7.249,-0.247574
7.25,-0.249845
7.251,-0.268013
7.252,-0.293319
7.253,-0.308242
7.254,-0.317651
7.255,-0.30954
7.256,-0.290399
7.257,-0.276773
7.258,-0.26704
7.259,-0.260551
7.26,-0.265418
7.261,-0.280666
7.262,-0.296887
7.263,-0.306296
7.264,-0.307593
7.265,-0.302403
7.266,-0.299807
7.267,-0.3037
7.268,-0.307593
7.269,-0.311811
7.27,-0.32641
7.271,-0.34101
7.272,-0.347174
7.273,-0.3608
7.274,-0.367288
7.275,-0.362746
7.276,-0.350094
7.277,-0.341334
7.278,-0.354636
7.279,-0.361449
7.28,-0.366964
7.281,-0.382861
7.282,-0.402976
7.283,-0.421793
7.284,-0.436067
7.285,-0.443854
7.286,-0.453262
7.287,-0.463968
7.288,-0.470133
7.289,-0.48019
7.29,-0.492518
7.291,-0.497709
7.292,-0.499656
7.293,-0.505495
7.294,-0.512308
7.295,-0.510686
7.296,-0.517824
7.297,-0.540534
7.298,-0.548644
7.299,-0.527557
7.3,-0.495762
7.301,-0.496087
7.302,-0.524961
7.303,-0.534694
7.304,-0.523663
7.305,-0.524961
7.306,-0.55416
7.307,-0.578492
7.308,-0.585954
7.309,-0.593091
7.31,-0.594389
7.311,-0.601526
7.312,-0.620668
7.313,-0.647595
7.314,-0.67355
7.315,-0.702748
7.316,-0.726107
7.317,-0.749142
7.318,-0.783207
7.319,-0.823436
7.32,-0.848741
7.321,-0.869505
7.322,-0.892864
7.323,-0.901948
7.324,-0.904868
7.325,-0.887673
7.326,-0.867234
7.327,-0.845497
7.328,-0.815974
7.329,-0.776069
7.33,-0.726756
7.331,-0.666412
7.332,-0.600878
7.333,-0.532099
7.334,-0.464293
7.335,-0.397785
7.336,-0.337441
7.337,-0.286181
7.338,-0.242059
7.339,-0.206371
7.34,-0.177497
7.341,-0.152841
7.342,-0.13597
7.343,-0.121371
7.344,-0.112936
7.345,-0.100283
7.346,-0.094443
7.347,-0.09055
7.348,-0.088928
7.349,-0.090875
7.35,-0.097039
7.351,-0.102554
7.352,-0.103203
7.353,-0.088604
7.354,-0.072707
7.355,-0.072058
7.356,-0.064271
7.357,-0.044481
7.358,-0.037344
7.359,-0.045454
7.36,-0.058107
7.361,-0.069138
7.362,-0.066867
7.363,-0.061027
7.364,-0.058107
7.365,-0.05908
7.366,-0.061676
7.367,-0.070111
7.368,-0.072707
7.369,-0.067516
